1444052035.00
64.000000
-0.00
-0.00
-0.00
-0.00
-0.00
-0.00
-0.00
-0.00
-0.00
-0.00
0.00
0.01
0.01
-0.00
-0.03
-0.05
-0.05
0.00
0.13
0.36
0.66
1.01
1.37
1.72
2.06
2.40
2.79
3.24
3.80
4.42
5.06
5.66
6.20
6.68
7.15
7.68
8.31
9.14
10.09
11.04
11.88
12.56
13.14
13.76
14.65
15.96
17.91
20.32
22.90
25.38
27.58
29.57
31.68
34.32
37.81
42.54
48.15
54.10
59.83
64.97
69.58
74.14
79.34
85.71
93.76
103.00
112.62
121.73
129.77
136.75
143.30
150.75
157.77
166.64
177.95
191.79
206.97
220.57
228.25
225.36
208.53
176.87
132.76
80.05
23.07
-34.94
-92.44
-149.16
-205.23
-260.37
-313.74
-363.87
-409.83
-450.91
-486.50
-515.74
-537.23
-549.22
-549.96
-538.37
-514.21
-478.67
-433.88
-382.45
-327.02
-269.84
-212.63
-156.66
-102.96
-52.38
-5.90
35.60
71.46
101.38
125.51
144.33
158.56
168.92
176.05
180.37
182.17
181.67
179.14
174.87
169.27
162.72
155.60
148.18
140.62
133.01
125.37
117.72
110.06
102.43
94.89
87.55
80.49
73.79
67.50
61.57
55.92
50.43
45.04
39.74
34.65
29.93
25.75
22.16
19.08
16.28
13.49
10.50
7.30
4.09
1.18
-1.08
-2.57
-3.42
-4.02
-4.85
-6.26
-8.29
-10.68
-12.91
-14.53
-15.29
-15.28
-14.92
-14.71
-15.16
-16.66
-19.37
-23.08
-27.01
-29.78
-29.63
-25.00
-15.26
-1.29
14.51
28.99
39.33
44.10
43.62
39.58
34.04
28.63
24.09
20.52
17.73
15.63
14.21
13.36
12.70
11.69
9.79
6.84
3.23
-0.14
-2.24
-2.19
0.29
4.79
10.24
15.26
18.63
19.67
18.43
15.57
11.93
8.14
4.50
1.04
-2.14
-4.72
-6.22
-6.23
-4.71
-2.07
1.01
3.82
5.89
7.13
7.72
7.97
8.11
8.27
8.44
8.60
8.69
8.68
8.52
8.17
7.67
7.12
6.60
6.13
5.62
4.88
3.69
2.04
-0.05
-2.38
-4.61
-6.42
-7.51
-7.64
-6.76
-4.92
-2.44
0.22
2.49
3.88
4.10
3.14
1.31
-0.91
-3.08
-4.94
-6.54
-8.22
-10.41
-13.44
-17.26
-21.35
-24.81
-26.69
-26.35
-23.82
-19.81
-15.48
-12.05
-10.41
-10.76
-12.62
-15.03
-16.87
-17.19
-15.66
-12.60
-8.66
-4.59
-0.76
2.82
6.43
10.34
14.56
18.83
22.77
26.22
29.20
31.98
34.68
37.05
38.48
38.27
35.91
31.42
25.55
18.97
12.66
7.39
3.58
1.19
-0.20
-1.21
-2.32
-3.75
-5.36
-6.73
-7.55
-7.73
-7.51
-7.27
-7.26
-7.48
-7.72
-7.71
-7.29
-6.55
-5.70
-5.00
-4.60
-4.48
-4.50
-4.44
-4.15
-3.49
-2.45
-1.13
0.31
1.55
2.24
2.11
1.15
-0.35
-1.77
-2.34
-1.40
1.36
5.58
10.31
14.21
15.87
14.20
8.69
-0.64
-13.38
-27.99
-42.70
-55.70
-65.55
-71.44
-73.37
-72.05
-68.55
-63.87
-58.54
-52.62
-45.79
-37.61
-27.81
-16.49
-3.94
9.40
23.17
37.05
50.56
62.93
73.16
80.12
82.92
81.19
75.26
66.14
55.24
43.97
33.46
24.35
16.84
10.84
6.27
3.28
2.18
3.31
6.74
12.03
18.29
24.40
29.28
32.20
32.89
31.41
28.06
23.14
16.99
9.96
2.50
-4.81
-11.38
-16.60
-19.95
-20.98
-19.42
-15.18
-8.53
-0.13
9.04
17.88
25.42
31.00
34.29
35.19
33.67
29.72
23.38
14.87
4.67
-6.52
-17.90
-28.75
-38.43
-46.41
-52.10
-54.83
-53.92
-48.88
-39.72
-27.15
-12.49
2.56
16.35
27.63
35.74
40.51
42.08
40.66
36.50
29.91
21.35
11.50
1.16
-8.94
-18.28
-26.61
-33.85
-39.88
-44.42
-47.06
-47.42
-45.36
-41.21
-35.64
-29.55
-23.76
-18.84
-15.10
-12.67
-11.57
-11.78
-13.14
-15.28
-17.51
-19.01
-18.95
-16.85
-12.64
-6.77
0.00
6.81
12.91
17.82
21.36
23.56
24.57
24.65
24.05
23.06
21.94
20.90
20.10
19.61
19.50
19.81
20.56
21.74
23.22
24.83
26.37
27.69
28.75
29.62
30.45
31.40
32.57
33.98
35.52
37.05
38.44
39.63
40.66
41.63
42.73
44.17
46.20
49.13
53.18
58.38
64.36
70.38
75.49
78.78
79.72
78.23
74.61
69.23
62.39
54.22
44.88
34.74
24.44
14.86
6.82
0.95
-2.45
-3.44
-2.27
0.68
4.95
10.11
15.63
20.98
25.60
28.94
30.49
29.87
26.92
21.70
14.55
5.94
-3.60
-13.62
-23.80
-33.99
-44.11
-54.11
-63.88
-73.22
-81.89
-89.70
-96.59
-102.68
-108.26
-113.66
-119.22
-125.22
-131.93
-139.65
-148.62
-158.84
-169.97
-181.22
-191.41
-199.31
-203.89
-204.52
-201.03
-193.58
-182.61
-168.76
-152.83
-135.84
-118.89
-103.00
-89.01
-77.37
-68.15
-61.06
-55.60
-51.10
-46.73
-41.56
-34.56
-24.77
-11.52
5.25
24.82
45.80
66.41
84.96
100.24
111.71
119.36
123.46
124.30
122.02
116.69
108.43
97.53
84.48
69.97
54.70
39.31
24.25
9.80
-3.97
-17.06
-29.48
-41.23
-52.25
-62.55
-72.16
-81.28
-90.12
-98.99
-108.13
-117.72
-127.72
-137.76
-147.02
-154.30
-158.23
-157.64
-151.91
-141.27
-126.73
-109.78
-91.95
-74.50
-58.11
-43.08
-29.45
-17.26
-6.65
2.22
9.29
14.78
19.21
23.28
27.69
32.90
39.00
45.70
52.41
58.48
63.36
66.78
68.79
69.67
69.78
69.48
68.95
68.07
66.34
62.84
56.52
46.54
32.83
16.41
-0.70
-15.95
-27.04
-32.54
-32.27
-27.19
-18.96
-9.50
-0.54
6.62
11.20
12.96
12.08
9.09
4.66
-0.45
-5.43
-9.42
-11.66
-11.58
-9.02
-4.29
1.91
8.81
15.74
22.37
28.58
34.32
39.42
43.54
46.28
47.31
46.51
43.93
39.81
34.46
28.36
22.09
16.49
12.53
11.12
12.93
18.13
26.27
36.40
47.29
57.64
66.33
72.57
75.93
76.28
73.78
68.84
62.06
54.23
46.20
38.80
32.65
28.08
25.03
23.12
21.83
20.59
18.98
16.78
13.99
10.74
7.21
3.55
-0.21
-4.12
-8.32
-12.91
-17.88
-23.03
-27.89
-31.74
-33.65
-32.66
-28.05
-19.59
-7.72
6.54
21.79
36.61
49.90
60.94
69.40
75.18
78.25
78.71
76.89
73.37
69.00
64.69
61.17
58.83
57.62
57.19
57.01
56.61
55.62
53.91
51.47
48.37
44.71
40.54
35.92
30.92
25.59
19.92
13.80
7.05
-0.44
-8.54
-16.65
-23.66
-28.16
-28.84
-24.91
-16.47
-4.47
9.53
23.83
36.99
48.12
56.80
62.97
66.69
68.08
67.29
64.63
60.56
55.69
50.66
45.96
41.87
38.45
35.61
33.13
30.80
28.42
25.78
22.73
19.17
15.05
10.43
5.42
0.18
-5.18
-10.64
-16.26
-22.21
-28.60
-35.40
-42.28
-48.58
-53.33
-55.41
-53.85
-48.10
-38.23
-25.04
-9.82
5.91
20.81
33.95
44.85
53.38
59.57
63.52
65.35
65.31
63.83
61.48
58.88
56.53
54.70
53.50
52.91
52.86
53.26
53.95
54.66
55.03
54.74
53.63
51.79
49.46
46.94
44.34
41.61
38.51
34.74
29.96
23.86
16.11
6.58
-4.49
-16.22
-27.08
-35.20
-38.95
-37.57
-31.41
-21.78
-10.34
1.45
12.74
23.13
32.41
40.18
45.94
49.36
50.60
50.34
49.50
48.82
48.52
48.37
47.87
46.63
44.48
41.53
37.88
33.54
28.51
23.06
17.69
12.90
8.80
4.88
0.15
-6.39
-15.21
-25.80
-36.48
-45.26
-50.83
-53.23
-53.69
-53.89
-55.08
-57.63
-61.00
-63.67
-64.34
-62.80
-60.15
-58.03
-57.60
-59.01
-61.55
-64.14
-65.08
-63.27
-58.90
-53.36
-48.21
-44.31
-41.64
-39.83
-38.68
-37.15
-34.03
-28.60
-20.66
-10.05
3.68
20.90
41.38
56.04
57.34
43.74
20.96
-2.74
-21.94
-35.37
-44.57
-52.02
-57.96
-62.79
-65.37
-64.59
-60.47
-54.09
-46.83
-39.83
-33.73
-29.66
-27.09
-24.83
-22.05
-18.84
-15.74
-13.18
-11.24
-9.87
-9.02
-8.22
-6.87
-4.85
-2.66
-1.05
-0.59
-1.56
-3.94
-7.61
-12.01
-16.43
-20.34
-23.60
-26.35
-28.85
-31.35
-34.06
-37.15
-40.57
-44.18
-47.84
-51.49
-54.88
-57.56
-58.76
-57.62
-53.48
-46.19
-36.21
-24.54
-12.45
-1.07
8.89
17.18
23.85
29.09
33.00
35.59
36.89
37.06
36.40
35.38
34.41
33.76
33.48
33.41
33.32
33.07
32.57
31.86
30.99
29.96
28.76
27.31
25.57
23.50
21.10
18.40
15.48
12.45
9.40
6.45
3.67
1.05
-1.45
-3.88
-6.29
-8.65
-10.92
-13.13
-15.37
-17.80
-20.57
-23.72
-27.11
-30.46
-33.48
-35.99
-38.13
-40.24
-42.82
-46.18
-50.27
-54.49
-57.86
-59.23
-57.72
-52.97
-45.28
-35.46
-24.62
-13.80
-3.79
4.95
12.24
18.08
22.51
25.59
27.43
28.24
28.29
27.92
27.44
27.10
27.03
27.24
27.69
28.28
28.90
29.42
29.71
29.67
29.22
28.33
26.98
25.16
22.85
20.11
17.04
13.79
10.59
7.57
4.82
2.32
-0.04
-2.35
-4.75
-7.29
-10.01
-12.83
-15.66
-18.36
-20.85
-23.10
-25.23
-27.41
-29.84
-32.74
-36.25
-40.35
-44.74
-48.85
-51.83
-52.75
-50.86
-45.86
-38.08
-28.33
-17.78
-7.55
1.57
9.19
15.27
20.01
23.60
26.13
27.65
28.19
27.90
27.09
26.13
25.38
25.04
25.10
25.38
25.68
25.87
25.91
25.87
25.78
25.59
25.18
24.35
22.96
20.97
18.44
15.51
12.34
9.11
6.01
3.14
0.58
-1.71
-3.86
-5.99
-8.27
-10.75
-13.44
-16.25
-19.07
-21.79
-24.32
-26.65
-28.85
-31.09
-33.62
-36.68
-40.36
-44.49
-48.57
-51.78
-53.19
-52.05
-47.98
-41.18
-32.31
-22.34
-12.26
-2.86
5.35
12.14
17.43
21.20
23.50
24.44
24.30
23.46
22.36
21.37
20.73
20.47
20.55
20.86
21.32
21.85
22.36
22.75
22.89
22.67
22.01
20.91
19.42
17.57
15.42
12.99
10.31
7.47
4.59
1.83
-0.71
-3.02
-5.20
-7.42
-9.82
-12.42
-15.09
-17.62
-19.79
-21.60
-23.19
-24.90
-27.08
-29.96
-33.54
-37.55
-41.47
-44.64
-46.34
-45.99
-43.24
-38.08
-30.87
-22.29
-13.17
-4.30
3.70
10.48
15.90
19.96
22.70
24.17
24.50
23.90
22.70
21.32
20.17
19.54
19.54
20.02
20.75
21.46
21.97
22.21
22.15
21.74
20.88
19.45
17.42
14.91
12.18
9.50
7.03
4.76
2.51
0.05
-2.73
-5.75
-8.79
-11.60
-14.02
-16.09
-18.01
-20.06
-22.49
-25.47
-29.00
-32.93
-36.93
-40.48
-42.91
-43.50
-41.67
-37.22
-30.40
-21.91
-12.74
-3.86
3.97
10.37
15.22
18.62
20.72
21.66
21.61
20.76
19.39
17.84
16.45
15.53
15.18
15.39
15.95
16.58
17.00
17.05
16.65
15.86
14.75
13.38
11.74
9.77
7.41
4.66
1.61
-1.59
-4.79
-7.87
-10.78
-13.54
-16.21
-18.86
-21.59
-24.55
-27.89
-31.70
-35.90
-40.15
-43.81
-46.05
-46.07
-43.33
-37.80
-30.01
-20.88
-11.51
-2.85
4.48
10.25
14.45
17.22
18.71
19.08
18.59
17.61
16.57
15.87
15.72
16.14
16.91
17.79
18.50
18.88
18.89
18.56
17.98
17.19
16.19
14.89
13.16
10.88
8.00
4.57
0.78
-3.15
-7.02
-10.72
-14.25
-17.74
-21.39
-25.38
-29.82
-34.58
-39.28
-43.31
-45.86
-46.19
-43.79
-38.59
-30.96
-21.68
-11.71
-2.00
6.74
14.03
19.65
23.57
25.86
26.70
26.34
25.15
23.57
22.02
20.81
20.05
19.65
19.36
18.94
18.25
17.28
16.17
15.03
13.88
12.60
10.95
8.73
5.85
2.44
-1.19
-4.71
-7.87
-10.65
-13.25
-16.02
-19.32
-23.39
-28.26
-33.69
-39.10
-43.73
-46.63
-46.96
-44.22
-38.40
-30.07
-20.24
-10.05
-0.45
8.00
15.09
20.84
25.30
28.48
30.31
30.85
30.36
29.24
27.99
26.96
26.27
25.82
25.42
24.90
24.21
23.41
22.58
21.76
20.90
19.86
18.47
16.59
14.14
11.10
7.58
3.78
-0.07
-3.75
-7.19
-10.50
-13.94
-17.82
-22.35
-27.48
-32.84
-37.73
-41.28
-42.63
-41.15
-36.64
-29.44
-20.29
-10.20
-0.19
8.95
16.71
22.90
27.50
30.60
32.31
32.79
32.26
30.99
29.35
27.71
26.39
25.55
25.18
25.10
25.06
24.82
24.29
23.48
22.49
21.34
19.96
18.10
15.54
12.21
8.25
4.00
-0.10
-3.75
-6.90
-9.72
-12.52
-15.63
-19.28
-23.52
-28.23
-33.04
-37.31
-40.25
-41.00
-38.92
-33.84
-26.18
-16.87
-7.06
2.17
10.12
16.46
21.21
24.50
26.47
27.22
26.86
25.62
23.85
21.98
20.40
19.36
18.82
18.59
18.38
17.99
17.34
16.53
15.71
14.96
14.20
13.21
11.69
9.46
6.51
3.07
-0.48
-3.74
-6.46
-8.68
-10.68
-12.90
-15.78
-19.56
-24.20
-29.31
-34.21
-38.07
-40.03
-39.45
-36.08
-30.14
-22.26
-13.31
-4.19
4.35
11.80
17.84
22.27
24.97
25.96
25.44
23.77
21.44
18.95
16.69
14.87
13.56
12.71
12.24
12.04
12.00
12.05
12.11
12.09
11.87
11.25
10.04
8.12
5.48
2.28
-1.18
-4.59
-7.73
-10.56
-13.18
-15.81
-18.71
-22.06
-25.89
-30.00
-33.91
-36.92
-38.26
-37.27
-33.65
-27.55
-19.58
-10.61
-1.61
6.64
13.57
18.87
22.43
24.28
24.56
23.54
21.58
19.10
16.58
14.41
12.89
12.09
11.89
12.06
12.31
12.40
12.23
11.78
11.04
9.96
8.42
6.31
3.63
0.48
-2.88
-6.16
-9.14
-11.77
-14.17
-16.58
-19.33
-22.61
-26.46
-30.65
-34.65
-37.79
-39.32
-38.65
-35.50
-29.97
-22.53
-13.93
-5.05
3.29
10.42
15.92
19.64
21.64
22.15
21.50
20.09
18.31
16.49
14.82
13.37
12.04
10.67
9.15
7.51
5.96
4.84
4.44
4.87
5.98
7.38
8.59
9.21
9.15
8.57
7.83
7.26
6.95
6.72
6.19
4.96
2.77
-0.30
-3.82
-7.06
-9.08
-9.00
-6.17
-0.50
7.50
16.78
26.03
34.08
40.25
44.41
46.87
48.06
48.29
47.65
46.07
43.50
40.02
35.83
31.19
26.34
21.54
17.07
13.29
10.47
8.63
7.46
6.29
4.34
1.03
-3.80
-9.86
-16.53
-23.13
-29.11
-34.15
-38.21
-41.37
-43.94
-46.30
-48.91
-52.13
-56.02
-60.17
-63.72
-65.59
-64.73
-60.54
-53.10
-43.19
-32.05
-21.04
-11.28
-3.40
2.42
6.39
8.82
10.00
10.17
9.49
8.21
6.64
5.12
3.93
3.17
2.79
2.64
2.56
2.49
2.42
2.31
2.05
1.40
0.14
-1.87
-4.56
-7.70
-11.01
-14.29
-17.47
-20.61
-23.83
-27.33
-31.17
-35.22
-39.12
-42.25
-43.87
-43.26
-39.94
-33.89
-25.60
-15.94
-5.88
3.65
11.90
18.31
22.57
24.66
24.74
22.91
19.56
15.30
10.87
6.89
3.67
1.23
-0.69
-2.56
-5.29
-9.34
-14.47
-19.98
-25.24
-29.98
-34.33
-38.62
-43.21
-49.07
-56.39
-64.58
-72.59
-79.71
-85.77
-90.92
-95.29
-98.79
-102.03
-104.71
-105.58
-102.90
-95.49
-83.26
-67.00
-47.96
-21.42
11.86
46.46
75.50
95.15
105.33
107.78
104.79
98.71
91.67
84.23
77.58
71.75
66.90
63.05
59.83
56.90
54.04
51.17
47.55
43.09
38.58
34.25
30.90
28.90
28.21
28.52
29.37
29.86
29.54
28.42
26.86
25.26
23.71
22.27
21.24
21.19
22.61
26.10
32.00
40.34
50.66
61.99
73.16
83.07
90.92
96.15
98.61
98.47
96.11
92.06
86.69
80.29
73.08
65.36
57.54
50.09
43.46
37.86
33.24
29.24
25.32
20.99
15.91
9.98
3.29
-3.92
-11.36
-18.70
-25.65
-31.97
-37.56
-42.54
-47.19
-51.86
-56.65
-61.30
-65.14
-67.25
-66.82
-63.48
-57.50
-49.71
-41.27
-33.24
-26.41
-21.13
-17.41
-15.12
-14.09
-14.19
-15.24
-16.99
-19.02
-20.85
-22.04
-22.34
-21.71
-20.33
-18.48
-16.41
-14.29
-12.21
-10.23
-8.43
-6.90
-5.73
-4.93
-4.51
-4.48
-4.89
-5.88
-7.58
-10.04
-13.19
-16.76
-20.27
-23.03
-24.30
-23.39
-19.90
-13.88
-5.84
3.32
12.50
20.70
27.20
31.66
34.09
34.72
33.87
31.88
29.06
25.72
22.18
18.76
15.72
13.23
11.24
9.58
7.96
6.07
3.67
0.67
-2.90
-6.88
-11.06
-15.23
-19.23
-23.01
-26.60
-30.09
-33.64
-37.38
-41.39
-45.59
-49.75
-53.39
-55.84
-56.37
-54.34
-49.49
-42.05
-32.68
-22.37
-12.17
-2.97
4.65
10.49
14.60
17.23
18.68
19.20
18.98
18.11
16.76
15.15
13.55
12.29
11.53
11.26
11.26
11.18
10.71
9.69
8.12
6.16
3.97
1.72
-0.52
-2.80
-5.20
-7.85
-10.80
-14.10
-17.65
-21.36
-25.07
-28.52
-31.31
-32.88
-32.54
-29.70
-24.08
-15.95
-6.13
4.20
13.85
21.87
27.82
31.67
33.68
34.18
33.48
31.89
29.78
27.56
25.66
24.36
23.69
23.40
23.07
22.33
21.00
19.17
17.13
15.14
13.32
11.52
9.42
6.74
3.36
-0.58
-4.73
-8.70
-12.23
-15.32
-18.19
-21.20
-24.68
-28.75
-33.25
-37.74
-41.48
-43.61
-43.35
-40.19
-34.17
-25.85
-16.25
-6.50
2.40
9.86
15.65
19.79
22.33
23.32
22.85
21.17
18.77
16.26
14.22
12.91
12.25
11.90
11.48
10.80
9.95
9.14
8.53
8.07
7.48
6.41
4.63
2.11
-0.92
-4.16
-7.32
-10.28
-13.07
-15.84
-18.77
-22.07
-25.89
-30.28
-35.07
-39.83
-43.85
-46.31
-46.44
-43.84
-38.56
-31.13
-22.44
-13.47
-5.13
1.93
7.32
10.89
12.72
13.03
12.21
10.77
9.30
8.34
8.23
9.02
10.48
12.18
13.68
14.66
15.02
14.86
14.40
13.82
13.19
12.48
11.58
10.38
8.87
7.10
5.20
3.27
1.33
-0.75
-3.19
-6.33
-10.49
-15.90
-22.47
-29.75
-36.84
-42.60
-45.90
-46.03
-42.88
-37.01
-29.46
-21.44
-13.97
-7.75
-3.10
-0.10
1.36
1.43
0.34
-1.58
-3.92
-6.17
-7.83
-8.51
-8.00
-6.30
-3.56
-0.02
4.11
8.60
13.18
17.48
21.01
23.29
24.00
23.08
20.87
17.92
14.92
12.44
10.82
10.12
10.17
10.56
10.80
10.49
9.43
7.76
6.01
4.91
5.16
7.20
11.07
16.34
22.36
28.37
33.73
38.02
41.02
42.69
43.10
42.35
40.61
38.10
35.12
32.00
29.06
26.55
24.54
22.95
21.63
20.48
19.48
18.72
18.30
18.17
18.12
17.80
16.86
15.12
12.63
9.62
6.47
3.46
0.75
-1.68
-4.00
-6.39
-9.11
-12.30
-16.02
-20.10
-24.05
-27.13
-28.38
-26.92
-22.32
-14.78
-5.08
5.60
16.07
25.34
32.79
38.10
41.16
42.00
40.73
37.64
33.27
28.19
22.88
17.63
12.45
7.15
1.48
-4.88
-11.79
-18.65
-24.72
-29.52
-33.14
-36.19
-39.51
-43.67
-48.96
-54.79
-60.12
-64.31
-67.57
-70.81
-74.98
-80.48
-87.04
-94.37
-101.74
-108.21
-113.18
-116.40
-117.66
-116.59
-112.69
-105.62
-95.94
-84.05
-69.95
-53.73
-35.59
-15.87
5.07
26.78
52.07
78.66
101.07
115.05
120.65
121.38
121.10
121.86
123.59
124.67
122.59
116.45
108.38
100.36
94.15
90.40
88.19
85.55
80.42
71.25
58.56
44.73
32.41
23.25
18.44
17.34
18.17
18.81
17.36
13.17
6.74
-1.03
-9.17
-16.90
-23.77
-29.31
-33.06
-34.76
-34.28
-31.72
-27.63
-22.86
-18.37
-15.14
-13.74
-14.18
-15.95
-18.21
-20.10
-21.17
-21.36
-20.89
-20.06
-19.01
-17.57
-15.52
-12.76
-9.44
-5.99
-2.90
-0.56
0.82
1.24
0.85
-0.16
-1.59
-3.33
-5.32
-7.59
-10.19
-13.28
-17.04
-21.63
-27.03
-32.91
-38.59
-43.05
-45.21
-44.26
-39.85
-32.30
-22.45
-11.39
-0.27
10.02
18.81
25.66
30.28
32.48
32.21
29.63
25.23
19.80
14.34
9.87
7.14
6.46
7.59
9.89
12.50
14.68
15.89
15.86
14.52
11.87
7.97
3.01
-2.54
-7.94
-12.24
-14.69
-15.04
-13.72
-11.76
-10.40
-10.65
-13.02
-17.38
-23.19
-29.68
-36.06
-41.60
-45.70
-47.82
-47.60
-44.90
-39.94
-33.25
-25.70
-18.35
-12.24
-8.23
-6.78
-7.83
-10.92
-15.32
-20.28
-25.26
-29.94
-34.18
-37.80
-40.54
-42.01
-41.86
-39.96
-36.56
-32.31
-28.07
-24.71
-22.84
-22.62
-23.73
-25.45
-26.86
-27.01
-25.24
-21.34
-15.71
-9.31
-3.45
0.70
2.56
2.45
1.55
1.49
3.70
8.89
16.71
25.92
34.81
41.68
45.29
44.98
40.81
33.41
23.87
13.62
4.14
-3.31
-7.99
-9.76
-9.10
-6.82
-3.78
-0.69
2.11
4.62
7.03
9.61
12.52
15.72
19.01
22.04
24.49
26.16
26.99
27.06
26.49
25.36
23.69
21.43
18.50
14.93
10.84
6.59
2.80
0.27
-0.14
2.27
7.67
15.69
25.34
35.28
44.17
50.98
55.12
56.52
55.47
52.54
48.43
43.88
39.61
36.19
34.01
33.18
33.57
34.87
36.67
38.56
40.26
41.55
42.33
42.56
42.18
41.20
39.60
37.47
34.91
32.06
29.03
25.85
22.46
18.75
14.61
9.98
4.89
-0.47
-5.74
-10.36
-13.65
-14.96
-13.86
-10.40
-5.08
1.17
7.31
12.42
15.91
17.61
17.68
16.47
14.42
11.94
9.34
6.84
4.52
2.41
0.48
-1.29
-2.90
-4.38
-5.77
-7.20
-8.78
-10.60
-12.67
-14.91
-17.29
-19.77
-22.41
-25.25
-28.30
-31.51
-34.80
-38.08
-41.21
-43.89
-45.64
-45.81
-43.80
-39.31
-32.51
-24.10
-15.08
-6.53
0.74
6.19
9.62
11.09
10.79
9.03
6.26
3.00
-0.22
-2.98
-5.07
-6.51
-7.49
-8.32
-9.22
-10.32
-11.63
-13.06
-14.55
-16.12
-17.81
-19.70
-21.89
-24.43
-27.39
-30.84
-34.86
-39.40
-44.20
-48.73
-52.20
-53.76
-52.67
-48.59
-41.68
-32.63
-22.48
-12.39
-3.39
3.82
8.96
12.03
13.28
13.03
11.62
9.40
6.77
4.16
1.94
0.42
-0.29
-0.24
0.32
1.06
1.64
1.81
1.44
0.53
-0.82
-2.48
-4.36
-6.44
-8.81
-11.64
-15.10
-19.25
-23.97
-28.84
-33.19
-36.17
-36.98
-35.02
-30.13
-22.62
-13.27
-3.14
6.67
15.23
21.95
26.62
29.32
30.30
29.86
28.27
25.78
22.75
19.59
16.79
14.72
13.51
13.00
12.82
12.54
11.88
10.77
9.32
7.66
5.91
4.04
1.95
-0.45
-3.21
-6.37
-9.91
-13.89
-18.30
-23.04
-27.72
-31.70
-34.08
-34.02
-30.98
-25.00
-16.74
-7.33
1.94
10.02
16.26
20.51
22.93
23.82
23.42
21.97
19.69
16.89
13.96
11.31
9.25
7.95
7.39
7.42
7.77
8.14
8.25
7.93
7.13
5.91
4.43
2.79
1.04
-0.91
-3.20
-5.97
-9.30
-13.19
-17.47
-21.79
-25.58
-28.10
-28.56
-26.35
-21.23
-13.51
-4.08
5.87
15.03
22.41
27.48
30.23
31.03
30.39
28.81
26.64
24.16
21.59
19.19
17.24
15.91
15.20
14.92
14.75
14.40
13.69
12.61
11.22
9.59
7.70
5.45
2.77
-0.35
-3.76
-7.26
-10.67
-13.93
-17.20
-20.73
-24.76
-29.32
-34.11
-38.44
-41.40
-42.06
-39.75
-34.30
-26.09
-16.04
-5.32
4.91
13.75
20.73
25.71
28.81
30.23
30.17
28.85
26.58
23.87
21.30
19.41
18.49
18.48
19.00
19.57
19.80
19.50
18.70
17.51
15.99
14.10
11.75
8.90
5.67
2.29
-0.96
-3.92
-6.65
-9.41
-12.52
-16.27
-20.71
-25.70
-30.83
-35.47
-38.86
-40.19
-38.79
-34.36
-27.13
-17.88
-7.70
2.25
11.07
18.27
23.72
27.50
29.74
30.57
30.15
28.74
26.73
24.61
22.86
21.79
21.49
21.79
22.38
22.91
23.12
22.89
22.23
21.24
19.98
18.51
16.82
14.86
12.56
9.89
6.84
3.51
0.07
-3.21
-6.12
-8.55
-10.63
-12.61
-14.86
-17.68
-21.19
-25.33
-29.83
-34.22
-37.90
-40.14
-40.20
-37.52
-31.89
-23.63
-13.58
-2.94
7.08
15.54
21.91
26.15
28.48
29.26
28.82
27.45
25.46
23.22
21.17
19.69
19.01
19.12
19.77
20.59
21.26
21.57
21.47
20.97
20.07
18.77
17.04
14.93
12.56
10.06
7.53
5.00
2.41
-0.28
-3.08
-5.93
-8.74
-11.44
-14.01
-16.50
-18.95
-21.49
-24.22
-27.30
-30.78
-34.50
-38.04
-40.67
-41.55
-39.93
-35.49
-28.46
-19.65
-10.18
-1.21
6.36
12.08
15.94
18.26
19.43
19.79
19.59
18.92
17.90
16.67
15.48
14.58
14.17
14.35
15.01
15.91
16.74
17.20
17.14
16.53
15.46
14.10
12.56
10.84
8.89
6.58
3.92
1.04
-1.82
-4.44
-6.73
-8.81
-10.92
-13.26
-15.90
-18.75
-21.69
-24.64
-27.65
-30.75
-33.74
-36.09
-36.95
-35.49
-31.20
-24.23
-15.34
-5.72
3.42
11.16
17.06
21.08
23.46
24.52
24.49
23.57
21.96
19.96
17.95
16.37
15.53
15.49
16.06
16.80
17.23
17.02
16.11
14.72
13.21
11.84
10.70
9.60
8.23
6.37
3.97
1.22
-1.60
-4.24
-6.62
-8.85
-11.15
-13.69
-16.52
-19.59
-22.83
-26.17
-29.55
-32.82
-35.61
-37.26
-37.06
-34.41
-29.15
-21.66
-12.81
-3.64
4.86
12.01
17.46
21.14
23.14
23.60
22.74
20.86
18.38
15.85
13.73
12.36
11.78
11.78
11.98
12.03
11.73
11.11
10.33
9.60
8.97
8.30
7.33
5.78
3.54
0.71
-2.43
-5.52
-8.30
-10.66
-12.72
-14.73
-17.04
-19.91
-23.43
-27.42
-31.39
-34.57
-36.11
-35.26
-31.66
-25.47
-17.37
-8.37
0.45
8.22
14.35
18.56
20.84
21.35
20.40
18.41
15.89
13.32
11.11
9.49
8.56
8.27
8.49
9.04
9.70
10.23
10.37
9.89
8.63
6.58
3.84
0.62
-2.76
-6.03
-9.00
-11.68
-14.22
-16.92
-20.07
-23.87
-28.28
-33.04
-37.63
-41.33
-43.33
-42.88
-39.53
-33.31
-24.84
-15.11
-5.27
3.69
11.12
16.77
20.61
22.77
23.39
22.73
21.09
18.89
16.51
14.31
12.51
11.18
10.30
9.81
9.60
9.52
9.38
8.98
8.14
6.73
4.74
2.20
-0.75
-3.94
-7.19
-10.36
-13.41
-16.46
-19.77
-23.58
-28.00
-32.82
-37.48
-41.10
-42.69
-41.46
-37.02
-29.60
-19.99
-9.34
1.09
10.28
17.61
22.89
26.28
28.07
28.56
28.02
26.64
24.68
22.42
20.15
18.11
16.41
15.10
14.12
13.41
12.92
12.53
12.10
11.39
10.17
8.24
5.53
2.12
-1.75
-5.81
-9.79
-13.57
-17.17
-20.76
-24.63
-29.00
-33.88
-38.89
-43.21
-45.71
-45.36
-41.50
-34.18
-24.15
-12.65
-1.08
9.43
18.12
24.68
29.11
31.58
32.30
31.59
29.85
27.60
25.42
23.80
22.95
22.81
23.04
23.18
22.90
22.08
20.86
19.50
18.18
16.91
15.48
13.60
11.04
7.78
4.02
0.09
-3.71
-7.23
-10.50
-13.72
-17.21
-21.27
-26.09
-31.58
-37.32
-42.52
-46.08
-46.90
-44.21
-37.82
-28.31
-16.84
-4.86
6.31
15.74
23.04
28.21
31.45
33.01
33.13
32.07
30.20
28.02
26.07
24.81
24.46
24.92
25.84
26.76
27.32
27.33
26.85
26.00
24.92
23.57
21.84
19.57
16.70
13.32
9.69
6.08
2.68
-0.47
-3.49
-6.53
-9.71
-13.00
-16.27
-19.35
-22.13
-24.65
-27.09
-29.79
-33.10
-37.18
-41.78
-46.12
-48.94
-48.90
-45.02
-37.10
-25.94
-13.03
-0.16
11.23
20.34
27.04
31.64
34.54
36.03
36.29
35.45
33.79
31.72
29.73
28.24
27.45
27.30
27.53
27.81
27.88
27.62
27.04
26.19
25.05
23.54
21.54
18.95
15.84
12.40
8.87
5.43
2.13
-1.13
-4.46
-7.91
-11.38
-14.68
-17.68
-20.40
-23.07
-26.01
-29.50
-33.54
-37.83
-41.68
-44.21
-44.56
-42.10
-36.69
-28.70
-18.94
-8.52
1.50
10.26
17.25
22.30
25.43
26.80
26.63
25.24
23.09
20.73
18.69
17.36
16.83
16.98
17.51
18.13
18.61
18.81
18.67
18.19
17.39
16.30
14.97
13.40
11.61
9.57
7.26
4.74
2.11
-0.51
-3.04
-5.49
-7.90
-10.28
-12.67
-15.10
-17.58
-20.15
-22.92
-25.99
-29.41
-32.96
-36.18
-38.36
-38.75
-36.67
-31.76
-24.19
-14.74
-4.62
4.87
12.61
17.84
20.13
19.47
16.31
11.24
4.87
-2.17
-9.24
-15.77
-21.24
-25.40
-28.00
-28.66
-27.15
-23.49
-17.91
-10.68
-2.06
8.12
18.81
28.30
35.65
41.08
45.33
48.98
52.14
54.46
55.46
55.58
54.57
52.68
50.31
47.67
44.74
41.29
37.06
31.96
25.92
19.48
13.66
9.40
7.21
7.13
8.73
11.33
14.14
16.43
17.71
17.82
16.80
14.67
11.47
7.29
2.33
-3.03
-8.33
-13.11
-17.03
-19.96
-22.11
-23.80
-25.34
-26.83
-28.22
-29.36
-30.14
-30.62
-31.08
-31.86
-33.22
-35.20
-37.60
-40.10
-42.37
-44.26
-45.80
-47.09
-48.29
-49.51
-50.83
-52.28
-53.84
-55.30
-56.25
-56.12
-54.30
-50.39
-44.42
-36.79
-28.29
-19.75
-11.93
-5.35
-0.32
3.04
4.76
5.03
4.17
2.62
0.83
-0.77
-1.89
-2.39
-2.28
-1.68
-0.78
0.16
0.89
1.21
1.00
0.30
-0.74
-1.93
-3.19
-4.54
-6.17
-8.27
-10.99
-14.34
-18.23
-22.59
-27.39
-32.61
-38.10
-43.43
-47.89
-50.60
-50.81
-48.20
-43.01
-35.96
-27.98
-19.93
-12.39
-5.71
-0.08
4.31
7.26
8.67
8.65
7.54
5.86
4.18
2.91
2.30
2.39
3.09
4.28
5.80
7.49
9.13
10.49
11.25
11.16
10.03
7.84
4.79
1.26
-2.35
-5.81
-9.13
-12.65
-16.86
-22.13
-28.55
-35.70
-42.71
-48.42
-51.64
-51.51
-47.71
-40.50
-30.70
-19.37
-7.65
3.54
13.47
21.64
27.74
31.64
33.40
33.34
31.93
29.74
27.29
25.02
23.20
21.97
21.34
21.22
21.36
21.45
21.17
20.28
18.68
16.39
13.54
10.26
6.68
2.82
-1.35
-5.94
-11.10
-16.88
-23.14
-29.42
-34.97
-38.82
-40.10
-38.23
-33.10
-25.12
-15.09
-4.06
6.93
16.98
25.40
31.82
36.13
38.45
39.05
38.30
36.59
34.31
31.79
29.34
27.24
25.63
24.59
24.03
23.73
23.39
22.70
21.43
19.52
17.02
14.07
10.79
7.23
3.34
-0.98
-5.85
-11.35
-17.45
-23.94
-30.33
-35.82
-39.37
-39.96
-36.85
-29.92
-19.73
-7.44
5.56
17.97
28.85
37.64
44.10
48.22
50.11
50.05
48.47
45.93
42.99
40.14
37.68
35.77
34.45
33.69
33.43
33.50
33.69
33.75
33.48
32.88
32.12
31.41
30.88
30.48
29.93
28.91
27.09
24.33
20.62
16.14
11.30
6.78
3.51
2.58
4.87
10.75
19.83
31.00
42.66
53.26
61.57
66.96
69.31
68.76
65.60
60.12
52.73
43.99
34.65
25.49
17.18
10.11
4.34
-0.27
-3.97
-6.94
-9.31
-11.17
-12.76
-14.41
-16.56
-19.60
-23.70
-28.75
-34.34
-39.98
-45.21
-49.82
-53.84
-57.57
-61.44
-65.92
-71.35
-77.80
-84.92
-91.81
-97.18
-99.59
-97.92
-91.75
-81.53
-68.43
-53.90
-39.25
-25.32
-12.52
-1.06
8.80
16.64
22.05
24.96
25.77
25.40
24.91
25.15
26.36
28.21
30.00
31.04
31.03
30.09
28.65
27.23
26.13
25.34
24.64
23.68
22.15
19.85
16.71
12.83
8.42
3.80
-0.71
-4.92
-8.86
-12.75
-17.03
-22.09
-28.04
-34.59
-40.96
-45.98
-48.46
-47.47
-42.63
-34.20
-23.04
-10.36
2.56
14.59
25.03
33.51
40.04
44.77
47.93
49.79
50.59
50.61
50.18
49.63
49.24
49.22
49.63
50.45
51.60
53.03
54.63
56.24
57.60
58.34
58.10
56.59
53.78
49.85
45.20
40.36
35.77
31.71
28.12
24.65
20.75
15.87
9.72
2.30
-6.01
-14.71
-23.26
-31.16
-37.93
-42.97
-45.61
-45.12
-41.11
-33.69
-23.65
-12.26
-0.95
9.12
17.30
23.46
27.86
30.77
32.40
32.79
32.03
30.31
28.08
25.91
24.27
23.36
23.08
23.06
22.88
22.25
21.07
19.40
17.43
15.33
13.15
10.87
8.39
5.56
2.28
-1.50
-5.72
-10.21
-14.73
-18.99
-22.77
-25.98
-28.74
-31.30
-33.99
-37.13
-40.90
-45.25
-49.89
-54.24
-57.49
-58.78
-57.32
-52.70
-45.09
-35.24
-24.29
-13.48
-3.80
4.15
10.20
14.35
16.70
17.33
16.40
14.23
11.35
8.45
6.23
5.16
5.32
6.44
7.97
9.33
10.09
10.09
9.42
8.36
7.14
5.89
4.55
2.94
0.86
-1.76
-4.83
-8.15
-11.48
-14.63
-17.53
-20.22
-22.83
-25.54
-28.49
-31.79
-35.45
-39.32
-43.04
-46.01
-47.48
-46.71
-43.23
-37.00
-28.52
-18.72
-8.72
0.41
7.94
13.50
17.06
18.76
18.85
17.61
15.40
12.71
10.10
8.09
6.97
6.70
6.93
7.19
7.11
6.59
5.81
5.05
4.52
4.16
3.70
2.78
1.19
-1.03
-3.62
-6.25
-8.68
-10.89
-13.01
-15.23
-17.75
-20.70
-24.13
-28.03
-32.23
-36.27
-39.44
-40.78
-39.49
-35.17
-28.07
-19.06
-9.33
-0.04
7.99
14.33
18.84
21.54
22.50
21.88
20.01
17.36
14.51
11.96
10.02
8.72
7.90
7.36
6.93
6.59
6.39
6.38
6.50
6.55
6.24
5.30
3.55
1.00
-2.21
-5.82
-9.54
-13.11
-16.37
-19.31
-22.06
-24.92
-28.26
-32.31
-37.01
-41.83
-45.79
-47.74
-46.73
-42.39
-35.06
-25.65
-15.36
-5.36
3.51
10.72
16.07
19.47
20.99
20.80
19.27
16.90
14.26
11.86
10.05
8.93
8.36
8.15
8.06
7.98
7.84
7.65
7.38
6.89
6.01
4.56
2.45
-0.35
-3.76
-7.66
-11.90
-16.28
-20.62
-24.78
-28.77
-32.73
-36.97
-41.70
-46.87
-51.95
-55.99
-57.87
-56.65
-52.03
-44.43
-34.89
-24.74
-15.17
-7.00
-0.63
3.87
6.57
7.58
7.09
5.50
3.36
1.35
0.06
-0.20
0.57
2.13
4.21
6.63
9.41
12.62
16.23
20.05
23.71
26.78
28.97
30.23
30.73
30.76
30.48
29.85
28.59
26.32
22.71
17.69
11.47
4.49
-2.61
-9.12
-14.28
-17.43
-18.03
-15.87
-11.09
-4.29
3.61
11.55
18.58
23.97
27.38
28.80
28.52
26.94
24.55
21.77
18.96
16.39
14.21
12.51
11.25
10.29
9.42
8.42
7.14
5.53
3.69
1.72
-0.33
-2.48
-4.89
-7.67
-10.84
-14.32
-17.89
-21.37
-24.72
-28.02
-31.51
-35.42
-39.84
-44.61
-49.21
-52.85
-54.58
-53.53
-49.21
-41.67
-31.57
-20.09
-8.57
1.78
10.17
16.31
20.25
22.26
22.64
21.69
19.77
17.36
15.02
13.20
12.17
11.87
12.00
12.24
12.32
12.15
11.76
11.20
10.45
9.40
7.90
5.88
3.36
0.50
-2.51
-5.51
-8.45
-11.44
-14.66
-18.25
-22.25
-26.46
-30.48
-33.69
-35.39
-34.90
-31.72
-25.66
-16.92
-6.20
5.44
16.75
26.54
33.99
38.71
40.78
40.62
38.82
36.03
32.87
29.89
27.48
25.88
25.14
25.12
25.54
26.10
26.51
26.54
26.01
24.76
22.67
19.73
16.07
12.04
8.04
4.42
1.32
-1.37
-4.00
-6.97
-10.70
-15.36
-20.91
-26.97
-32.78
-37.27
-39.33
-37.99
-32.89
-24.35
-13.40
-1.45
10.10
20.12
27.95
33.33
36.30
37.05
35.95
33.42
30.00
26.24
22.62
19.50
17.00
15.09
13.60
12.32
11.09
9.84
8.52
7.11
5.50
3.54
1.04
-2.18
-6.14
-10.74
-15.72
-20.80
-25.75
-30.51
-35.22
-40.08
-45.22
-50.49
-55.40
-59.12
-60.72
-59.45
-54.92
-47.29
-37.21
-25.69
-13.87
-2.81
6.62
13.88
18.74
21.23
21.59
20.17
17.43
13.89
10.14
6.69
3.91
1.85
0.30
-1.11
-2.76
-4.88
-7.46
-10.36
-13.42
-16.64
-20.18
-24.28
-29.07
-34.40
-39.72
-44.16
-46.79
-46.93
-44.44
-39.90
-34.41
-29.31
-25.71
-24.16
-24.56
-26.14
-27.65
-27.57
-24.40
-17.06
-5.28
10.11
27.28
43.85
57.54
66.89
71.57
72.22
70.00
66.12
61.45
56.56
51.91
47.93
45.02
43.42
43.05
43.48
44.16
44.58
44.51
44.00
43.22
42.35
41.38
40.13
38.36
35.90
32.72
28.98
24.92
20.76
16.67
12.65
8.60
4.41
0.05
-4.20
-7.72
-9.65
-9.12
-5.54
1.05
10.03
20.30
30.63
40.01
47.81
53.84
58.25
61.34
63.43
64.88
66.08
67.47
69.51
72.61
76.97
82.54
89.01
95.95
103.00
109.94
116.65
123.02
128.73
133.22
135.79
135.76
132.79
126.90
118.46
108.03
96.21
83.53
70.44
57.33
44.52
32.28
20.81
10.38
1.34
-5.82
-10.55
-12.45
-11.43
-7.90
-2.74
2.85
7.66
10.73
11.51
9.90
6.09
0.51
-6.41
-14.14
-22.16
-29.91
-36.92
-42.83
-47.46
-50.82
-53.09
-54.54
-55.42
-55.96
-56.36
-56.80
-57.47
-58.53
-60.05
-61.97
-64.06
-66.03
-67.62
-68.71
-69.38
-69.85
-70.36
-71.11
-72.15
-73.40
-74.62
-75.34
-75.01
-72.99
-68.88
-62.70
-54.96
-46.56
-38.51
-31.66
-26.46
-22.99
-21.08
-20.45
-20.85
-22.00
-23.61
-25.39
-27.04
-28.33
-29.13
-29.44
-29.38
-29.18
-29.13
-29.47
-30.32
-31.65
-33.28
-34.96
-36.50
-37.80
-38.87
-39.81
-40.73
-41.73
-42.88
-44.27
-46.01
-48.16
-50.74
-53.51
-55.97
-57.35
-56.80
-53.66
-47.75
-39.54
-30.00
-20.39
-11.83
-5.05
-0.26
2.71
4.19
4.54
4.00
2.79
1.08
-0.85
-2.79
-4.52
-5.95
-7.06
-7.93
-8.67
-9.46
-10.51
-12.00
-14.06
-16.68
-19.72
-22.94
-26.09
-29.06
-31.81
-34.47
-37.20
-40.21
-43.71
-47.77
-52.33
-56.98
-60.92
-63.05
-62.28
-57.90
-49.91
-39.12
-26.93
-14.92
-4.36
4.02
10.04
13.94
16.09
16.87
16.60
15.56
14.06
12.42
10.92
9.73
8.87
8.19
7.47
6.50
5.12
3.30
1.06
-1.55
-4.48
-7.71
-11.19
-14.81
-18.45
-22.08
-25.84
-30.08
-35.21
-41.46
-48.79
-56.69
-64.28
-70.36
-73.75
-73.43
-68.90
-60.32
-48.53
-34.85
-20.79
-7.64
3.75
13.00
20.05
24.97
27.86
28.89
28.37
26.80
24.76
22.77
21.12
19.83
18.76
17.75
16.74
15.78
14.98
14.30
13.49
12.14
9.80
6.14
1.17
-4.80
-11.19
-17.41
-23.01
-27.92
-32.42
-37.15
-42.82
-49.96
-58.61
-68.07
-76.86
-83.09
-84.88
-81.01
-71.36
-56.94
-39.57
-21.34
-4.06
11.12
23.70
33.66
41.19
46.49
49.71
51.07
50.91
49.71
48.03
46.40
45.20
44.51
44.21
43.99
43.55
42.72
41.44
39.81
37.93
35.85
33.49
30.70
27.27
23.04
17.96
12.16
5.93
-0.38
-6.44
-12.12
-17.44
-22.59
-27.85
-33.49
-39.76
-46.83
-54.64
-62.76
-70.19
-75.37
-76.56
-72.28
-61.99
-46.33
-27.04
-6.43
13.34
30.77
45.20
56.58
65.16
71.19
74.86
76.42
76.26
74.98
73.20
71.44
69.97
68.78
67.78
66.83
65.88
64.90
63.83
62.48
60.52
57.65
53.67
48.61
42.78
36.61
30.45
24.48
18.60
12.55
6.09
-0.79
-7.86
-14.75
-21.17
-27.06
-32.68
-38.49
-45.05
-52.75
-61.69
-71.44
-80.97
-88.70
-92.81
-91.75
-84.75
-72.14
-55.32
-36.36
-17.36
0.04
14.91
26.95
36.18
42.68
46.60
48.17
47.90
46.53
44.87
43.57
42.92
42.83
43.00
43.14
43.12
42.98
42.82
42.65
42.29
41.45
39.84
37.31
33.96
30.06
25.95
21.87
17.96
14.15
10.25
6.03
1.38
-3.69
-8.98
-14.23
-19.17
-23.72
-28.02
-32.50
-37.70
-44.12
-51.90
-60.51
-68.72
-74.72
-76.62
-73.08
-63.80
-49.68
-32.56
-14.58
2.40
17.24
29.49
39.20
46.51
51.54
54.32
55.02
53.99
51.84
49.26
46.86
45.03
43.91
43.44
43.43
43.68
43.94
44.03
43.73
42.88
41.38
39.17
36.28
32.80
28.87
24.65
20.30
15.89
11.46
6.94
2.25
-2.66
-7.71
-12.80
-17.78
-22.64
-27.47
-32.51
-38.06
-44.31
-51.25
-58.45
-64.98
-69.54
-70.66
-67.19
-58.76
-45.93
-30.21
-13.54
2.18
15.61
26.15
33.83
39.00
42.07
43.37
43.17
41.80
39.77
37.64
35.93
34.92
34.59
34.73
35.02
35.25
35.31
35.19
34.81
34.03
32.69
30.68
27.98
24.74
21.09
17.15
12.92
8.36
3.46
-1.72
-7.07
-12.40
-17.59
-22.54
-27.27
-31.85
-36.50
-41.50
-47.14
-53.56
-60.50
-67.12
-72.11
-73.92
-71.29
-63.70
-51.60
-36.33
-19.73
-3.62
10.62
22.23
31.02
37.10
40.78
42.40
42.36
41.11
39.22
37.32
35.93
35.48
36.10
37.63
39.72
41.91
43.79
45.11
45.80
45.96
45.78
45.41
44.93
44.31
43.43
42.18
40.50
38.46
36.19
33.93
31.91
30.29
29.18
28.56
28.31
28.27
28.20
27.88
27.17
26.16
25.38
25.70
28.24
33.95
43.24
55.64
69.87
84.23
97.06
107.22
114.31
118.47
120.09
119.57
117.17
113.09
107.63
101.20
94.28
87.28
80.38
73.60
66.83
59.92
52.77
45.37
37.74
30.01
22.34
14.95
7.99
1.46
-4.72
-10.78
-16.85
-22.97
-29.04
-34.89
-40.39
-45.48
-50.20
-54.64
-58.79
-62.59
-65.91
-68.71
-70.99
-72.82
-74.21
-75.00
-74.91
-73.61
-70.96
-67.09
-62.42
-57.54
-52.95
-48.93
-45.60
-42.91
-40.84
-39.39
-38.55
-38.20
-38.10
-37.91
-37.31
-36.13
-34.39
-32.27
-30.06
-28.02
-26.35
-25.15
-24.42
-24.07
-23.98
-24.03
-24.18
-24.47
-24.97
-25.73
-26.67
-27.63
-28.43
-28.97
-29.32
-29.76
-30.59
-32.05
-34.11
-36.48
-38.64
-40.06
-40.27
-39.00
-36.19
-32.03
-26.89
-21.30
-15.83
-11.00
-7.16
-4.50
-3.01
-2.59
-3.07
-4.20
-5.73
-7.32
-8.70
-9.69
-10.31
-10.73
-11.16
-11.73
-12.46
-13.25
-13.98
-14.61
-15.21
-15.97
-17.05
-18.60
-20.63
-23.04
-25.64
-28.23
-30.63
-32.76
-34.63
-36.32
-38.02
-39.89
-42.11
-44.65
-47.25
-49.31
-50.00
-48.45
-44.06
-36.79
-27.18
-16.22
-5.02
5.48
14.69
22.32
28.20
32.18
34.13
34.04
32.18
29.08
25.41
21.78
18.54
15.78
13.36
11.11
8.98
6.99
5.21
3.58
1.95
0.03
-2.42
-5.52
-9.19
-13.20
-17.27
-21.15
-24.73
-28.05
-31.25
-34.57
-38.26
-42.54
-47.50
-53.03
-58.78
-64.11
-68.25
-70.36
-69.80
-66.21
-59.66
-50.70
-40.16
-29.08
-18.41
-8.96
-1.28
4.32
7.74
9.09
8.69
7.03
4.82
2.73
1.29
0.74
0.94
1.52
2.03
2.15
1.75
0.94
-0.06
-1.01
-1.86
-2.74
-3.95
-5.85
-8.66
-12.39
-16.77
-21.39
-25.83
-29.82
-33.34
-36.66
-40.24
-44.59
-50.05
-56.63
-63.78
-70.40
-75.01
-76.03
-72.32
-63.55
-50.43
-34.47
-17.58
-1.52
12.46
23.75
32.21
37.90
40.91
41.35
39.45
35.75
31.08
26.45
22.71
20.43
19.57
19.74
20.22
20.41
19.91
18.67
16.91
14.87
12.66
10.19
7.16
3.26
-1.68
-7.58
-14.10
-20.71
-26.97
-32.57
-37.54
-42.20
-47.15
-52.99
-60.18
-68.77
-78.31
-87.73
-95.46
-99.68
-98.74
-91.66
-78.48
-60.38
-39.38
-17.77
2.46
20.01
34.29
45.24
52.95
57.53
59.23
58.57
56.49
54.24
52.94
53.24
55.07
57.72
60.25
61.88
62.32
61.75
60.56
59.03
57.08
54.39
50.50
45.20
38.61
31.17
23.49
16.08
9.26
3.03
-2.86
-8.88
-15.52
-23.21
-32.16
-42.20
-52.60
-62.11
-69.06
-71.74
-68.87
-60.02
-45.87
-28.00
-8.55
10.46
27.45
41.49
52.19
59.44
63.28
63.95
61.95
58.16
53.66
49.55
46.58
45.03
44.66
44.91
45.19
45.09
44.48
43.48
42.32
41.12
39.77
37.91
35.04
30.78
25.06
18.24
10.92
3.74
-2.95
-9.19
-15.41
-22.22
-30.12
-39.27
-49.32
-59.29
-67.71
-72.87
-73.25
-67.88
-56.76
-40.83
-21.83
-1.83
17.24
33.96
47.49
57.55
64.15
67.50
67.96
66.02
62.46
58.18
54.17
51.21
49.76
49.75
50.73
52.03
53.01
53.30
52.87
51.90
50.57
48.88
46.56
43.15
38.27
31.88
24.33
16.32
8.60
1.65
-4.50
-10.26
-16.29
-23.26
-31.61
-41.34
-51.87
-62.04
-70.18
-74.52
-73.53
-66.55
-54.02
-37.46
-19.02
-0.88
15.37
28.88
39.48
47.31
52.48
55.04
55.06
52.89
49.33
45.50
42.57
41.41
42.26
44.76
48.11
51.48
54.30
56.37
57.78
58.70
59.17
59.03
58.01
55.91
52.75
48.81
44.50
40.26
36.35
32.80
29.35
25.53
20.78
14.57
6.51
-3.46
-15.00
-27.22
-38.75
-47.92
-53.11
-53.25
-48.16
-38.65
-26.28
-12.92
-0.24
10.63
19.12
25.05
28.38
29.13
27.43
23.69
18.71
13.59
9.46
7.11
6.81
8.21
10.61
13.27
15.70
17.72
19.38
20.78
21.85
22.35
21.94
20.38
17.64
13.93
9.66
5.30
1.23
-2.40
-5.75
-9.23
-13.39
-18.72
-25.39
-33.17
-41.35
-48.79
-54.15
-56.06
-53.52
-46.13
-34.34
-19.42
-3.18
12.53
26.26
37.29
45.50
51.13
54.47
55.66
54.82
52.25
48.56
44.65
41.41
39.36
38.49
38.27
37.97
37.00
35.16
32.66
30.00
27.63
25.75
24.23
22.61
20.39
17.22
13.10
8.40
3.66
-0.59
-4.14
-7.18
-10.20
-13.83
-18.54
-24.48
-31.42
-38.68
-45.33
-50.23
-52.24
-50.49
-44.66
-35.14
-22.99
-9.74
3.09
14.30
23.22
29.61
33.50
35.04
34.40
31.91
28.08
23.62
19.31
15.76
13.24
11.68
10.74
10.05
9.31
8.40
7.30
5.99
4.43
2.45
-0.06
-3.15
-6.71
-10.45
-14.05
-17.25
-20.00
-22.49
-25.07
-28.18
-32.22
-37.41
-43.72
-50.76
-57.68
-63.24
-66.00
-64.73
-58.86
-48.72
-35.57
-21.20
-7.42
4.47
13.80
20.48
24.63
26.44
26.07
23.81
20.18
15.93
11.89
8.69
6.64
5.61
5.20
4.97
4.58
3.93
3.04
1.97
0.65
-1.14
-3.76
-7.54
-12.60
-18.83
-25.95
-33.57
-41.42
-49.36
-57.39
-65.58
-73.98
-82.54
-91.04
-99.01
-105.59
-109.62
-109.81
-105.14
-95.27
-80.78
-63.08
-44.09
-25.69
-9.32
4.17
14.47
21.61
25.78
27.25
26.46
24.07
20.97
18.10
16.25
15.80
16.69
18.46
20.53
22.41
23.86
24.84
25.38
25.43
24.84
23.37
20.92
17.57
13.62
9.45
5.35
1.39
-2.52
-6.62
-11.21
-16.54
-22.78
-29.86
-37.38
-44.38
-49.43
-50.96
-47.76
-39.45
-26.79
-11.44
4.54
19.34
31.83
41.58
48.63
53.12
55.09
54.56
51.76
47.34
42.34
37.87
34.79
33.41
33.46
34.29
35.15
35.52
35.21
34.31
33.04
31.55
29.78
27.49
24.36
20.18
14.96
9.00
2.76
-3.28
-8.85
-13.94
-18.87
-24.10
-30.08
-37.10
-45.06
-53.40
-61.03
-66.52
-68.39
-65.55
-57.69
-45.42
-30.20
-13.85
1.87
15.72
27.00
35.53
41.36
44.62
45.47
44.24
41.48
37.98
34.63
32.15
30.92
30.85
31.44
32.04
32.08
31.30
29.72
27.64
25.34
22.92
20.28
17.12
13.20
8.43
3.01
-2.65
-8.13
-13.12
-17.53
-21.57
-25.57
-29.95
-35.03
-40.97
-47.65
-54.61
-61.00
-65.69
-67.41
-65.10
-58.19
-46.90
-32.21
-15.74
0.73
15.65
28.01
37.39
43.80
47.47
48.65
47.55
44.56
40.29
35.60
31.46
28.61
27.39
27.65
28.84
30.33
31.53
32.11
31.95
31.11
29.69
27.81
25.50
22.74
19.46
15.57
11.10
6.15
0.97
-4.20
-9.21
-14.11
-19.10
-24.47
-30.48
-37.23
-44.60
-52.13
-59.03
-64.13
-66.17
-64.05
-57.29
-46.27
-32.22
-16.92
-2.18
10.64
20.82
28.22
32.98
35.33
35.45
33.58
30.24
26.18
22.33
19.44
17.91
17.63
18.11
18.72
18.97
18.69
17.97
17.04
16.06
14.98
13.56
11.45
8.39
4.37
-0.39
-5.51
-10.58
-15.34
-19.72
-23.88
-28.14
-32.80
-38.13
-44.24
-51.02
-58.03
-64.44
-69.07
-70.58
-67.84
-60.36
-48.51
-33.59
-17.40
-1.84
11.64
22.19
29.59
33.96
35.63
34.95
32.39
28.56
24.26
20.28
17.28
15.58
15.08
15.38
15.96
16.43
16.59
16.45
16.09
15.50
14.47
12.71
9.93
6.08
1.36
-3.81
-8.94
-13.67
-17.86
-21.67
-25.45
-29.66
-34.74
-40.90
-47.96
-55.21
-61.47
-65.30
-65.40
-60.99
-52.12
-39.68
-25.11
-10.07
4.06
16.34
26.24
33.59
38.35
40.57
40.45
38.42
35.16
31.55
28.39
26.19
24.99
24.42
23.90
22.93
21.37
19.41
17.42
15.70
14.21
12.56
10.25
6.92
2.59
-2.34
-7.28
-11.73
-15.50
-18.74
-21.85
-25.24
-29.26
-34.08
-39.69
-45.85
-51.97
-57.04
-59.78
-58.92
-53.71
-44.22
-31.49
-17.18
-3.13
9.27
19.25
26.68
31.69
34.49
35.19
33.89
30.94
26.93
22.71
19.08
16.57
15.28
14.92
15.05
15.24
15.28
15.17
14.99
14.75
14.29
13.28
11.38
8.38
4.37
-0.30
-5.10
-9.59
-13.56
-17.11
-20.61
-24.58
-29.47
-35.47
-42.42
-49.70
-56.24
-60.70
-61.74
-58.45
-50.62
-38.94
-24.83
-9.97
4.08
16.22
25.88
32.84
37.12
38.81
38.18
35.73
32.26
28.68
25.79
24.01
23.27
23.17
23.18
22.92
22.30
21.49
20.77
20.27
19.89
19.26
17.91
15.42
11.67
6.85
1.40
-4.16
-9.41
-14.17
-18.51
-22.69
-27.09
-31.98
-37.43
-43.10
-48.24
-51.75
-52.48
-49.63
-42.96
-33.01
-20.91
-8.02
4.37
15.30
24.23
30.90
35.20
37.10
36.71
34.33
30.53
26.08
21.79
18.35
16.10
15.01
14.77
14.95
15.18
15.27
15.18
14.92
14.44
13.54
11.97
9.50
6.05
1.80
-2.94
-7.79
-12.47
-16.89
-21.23
-25.81
-31.02
-37.10
-43.94
-50.91
-56.91
-60.60
-60.72
-56.52
-48.06
-36.16
-22.23
-7.86
5.59
17.16
26.36
32.98
36.98
38.41
37.43
34.50
30.36
25.98
22.30
19.99
19.18
19.55
20.46
21.34
21.80
21.78
21.40
20.80
19.94
18.63
16.60
13.65
9.83
5.39
0.71
-3.85
-8.09
-12.04
-15.88
-19.94
-24.51
-29.85
-35.97
-42.51
-48.65
-53.20
-54.79
-52.36
-45.58
-34.97
-21.84
-7.83
5.57
17.37
27.06
34.45
39.46
41.98
41.99
39.74
35.89
31.39
27.29
24.34
22.84
22.54
22.86
23.16
23.07
22.53
21.78
21.08
20.48
19.72
18.31
15.74
11.80
6.70
1.00
-4.64
-9.72
-14.08
-17.90
-21.58
-25.53
-30.05
-35.24
-40.90
-46.49
-51.15
-53.75
-53.21
-48.82
-40.51
-28.95
-15.40
-1.34
11.88
23.24
32.19
38.55
42.40
44.00
43.71
42.03
39.52
36.84
34.57
33.12
32.60
32.82
33.34
33.70
33.57
32.88
31.79
30.52
29.14
27.53
25.36
22.33
18.33
13.49
8.20
2.90
-2.05
-6.53
-10.69
-14.85
-19.43
-24.75
-30.91
-37.67
-44.37
-50.03
-53.47
-53.64
-49.95
-42.45
-31.86
-19.39
-6.41
5.92
16.71
25.46
31.89
35.88
37.47
36.85
34.50
31.13
27.56
24.51
22.51
21.68
21.86
22.64
23.56
24.22
24.38
23.96
23.04
21.69
19.95
17.76
15.01
11.62
7.64
3.31
-1.00
-4.92
-8.25
-11.10
-13.78
-16.72
-20.19
-24.19
-28.37
-32.10
-34.55
-34.83
-32.17
-26.08
-16.52
-4.06
10.28
25.17
39.38
51.97
62.44
70.58
76.36
79.80
81.00
80.25
78.12
75.35
72.67
70.53
69.00
67.72
66.10
63.58
59.86
54.95
49.12
42.75
36.17
29.55
22.90
16.16
9.32
2.47
-4.20
-10.48
-16.31
-21.76
-27.08
-32.55
-38.37
-44.60
-51.02
-57.23
-62.60
-66.35
-67.72
-66.14
-61.44
-53.94
-44.43
-33.98
-23.64
-14.26
-6.33
-0.12
4.23
6.61
7.00
5.54
2.69
-0.84
-4.22
-6.73
-8.00
-8.06
-7.20
-5.80
-4.11
-2.25
-0.27
1.71
3.43
4.46
4.44
3.19
0.86
-2.14
-5.26
-8.02
-10.17
-11.76
-13.10
-14.63
-16.84
-20.05
-24.28
-29.11
-33.65
-36.68
-37.02
-33.86
-27.08
-17.34
-5.87
5.92
16.83
26.07
33.29
38.39
41.37
42.27
41.23
38.62
35.10
31.46
28.44
26.49
25.72
25.89
26.63
27.57
28.51
29.43
30.42
31.60
32.96
34.33
35.44
36.00
35.80
34.84
33.26
31.28
29.08
26.72
24.12
21.11
17.55
13.37
8.59
3.45
-1.54
-5.64
-8.00
-7.94
-5.23
-0.22
6.26
13.16
19.63
25.12
29.42
32.45
34.05
33.98
32.01
28.20
23.06
17.44
12.34
8.50
6.19
5.16
4.83
4.59
4.05
3.17
2.11
1.09
0.11
-1.07
-2.83
-5.52
-9.19
-13.60
-18.26
-22.78
-26.95
-30.89
-34.85
-39.10
-43.75
-48.74
-53.88
-58.87
-63.24
-66.32
-67.30
-65.41
-60.34
-52.35
-42.42
-31.90
-22.12
-13.99
-7.87
-3.74
-1.41
-0.75
-1.65
-3.88
-7.02
-10.39
-13.24
-15.02
-15.55
-15.11
-14.21
-13.42
-13.11
-13.36
-14.00
-14.83
-15.76
-16.92
-18.57
-20.96
-24.18
-28.06
-32.20
-36.19
-39.69
-42.65
-45.30
-48.09
-51.47
-55.75
-60.86
-66.25
-70.90
-73.58
-73.17
-69.04
-61.31
-50.79
-38.79
-26.70
-15.69
-6.54
0.36
4.91
7.16
7.34
5.82
3.19
0.15
-2.60
-4.58
-5.63
-5.85
-5.48
-4.80
-4.03
-3.37
-3.02
-3.20
-4.11
-5.86
-8.40
-11.54
-14.97
-18.42
-21.71
-24.77
-27.63
-30.40
-33.21
-36.27
-39.76
-43.85
-48.48
-53.28
-57.47
-59.99
-59.72
-55.87
-48.30
-37.66
-25.19
-12.38
-0.53
9.53
17.46
23.24
26.94
28.59
28.26
26.17
22.83
18.97
15.36
12.60
10.92
10.25
10.28
10.67
11.14
11.54
11.70
11.45
10.59
8.90
6.30
2.81
-1.31
-5.74
-10.12
-14.27
-18.26
-22.31
-26.77
-31.88
-37.72
-44.06
-50.42
-56.00
-59.83
-60.90
-58.37
-51.90
-41.77
-28.90
-14.63
-0.28
13.07
24.74
34.31
41.49
46.01
47.73
46.83
43.93
40.02
36.17
33.14
31.27
30.38
30.04
29.81
29.44
28.85
28.10
27.15
25.87
24.00
21.32
17.72
13.31
8.40
3.34
-1.62
-6.40
-11.17
-16.23
-21.86
-28.25
-35.38
-42.97
-50.54
-57.32
-62.32
-64.46
-62.82
-56.95
-47.11
-34.28
-19.94
-5.68
7.22
17.94
26.16
31.86
35.19
36.41
35.88
34.11
31.76
29.48
27.82
27.02
27.06
27.71
28.65
29.59
30.32
30.70
30.62
29.97
28.60
26.36
23.22
19.26
14.69
9.87
5.11
0.61
-3.71
-8.15
-13.18
-19.35
-26.95
-35.89
-45.47
-54.37
-60.91
-63.52
-61.19
-53.88
-42.57
-28.93
-14.82
-1.77
9.28
17.93
24.13
27.95
29.46
28.81
26.35
22.69
18.64
14.99
12.30
10.77
10.23
10.32
10.65
10.99
11.26
11.47
11.63
11.60
11.13
9.95
7.87
4.94
1.39
-2.46
-6.33
-10.14
-13.98
-18.08
-22.69
-28.00
-34.05
-40.62
-47.22
-52.93
-56.60
-56.99
-53.23
-45.12
-33.36
-19.34
-4.76
8.83
20.42
29.51
35.98
39.91
41.42
40.73
38.23
34.53
30.38
26.46
23.28
21.07
19.85
19.51
19.87
20.73
21.82
22.83
23.43
23.29
22.22
20.18
17.29
13.80
9.97
6.01
2.03
-2.02
-6.27
-10.93
-16.21
-22.26
-29.05
-36.17
-42.80
-47.71
-49.51
-47.13
-40.16
-29.14
-15.42
-0.75
13.16
25.05
34.22
40.48
43.91
44.78
43.48
40.54
36.65
32.57
29.05
26.58
25.35
25.16
25.60
26.25
26.80
27.18
27.41
27.47
27.17
26.15
24.02
20.59
15.95
10.54
4.88
-0.54
-5.54
-10.24
-15.02
-20.29
-26.39
-33.28
-40.51
-47.22
-52.21
-54.25
-52.40
-46.30
-36.29
-23.31
-8.70
6.06
19.68
31.15
39.85
45.57
48.44
48.95
47.75
45.56
43.01
40.56
38.49
36.98
36.11
35.86
36.10
36.56
36.94
36.92
36.25
34.77
32.35
28.90
24.35
18.80
12.53
6.00
-0.25
-5.88
-10.84
-15.38
-19.98
-25.14
-31.16
-37.98
-45.10
-51.54
-56.03
-57.30
-54.48
-47.42
-36.79
-23.92
-10.37
2.46
13.61
22.52
28.89
32.58
33.56
32.03
28.57
24.06
19.50
15.76
13.28
12.07
11.82
12.14
12.69
13.31
13.89
14.34
14.44
13.92
12.47
9.94
6.41
2.18
-2.27
-6.53
-10.34
-13.78
-17.14
-20.88
-25.37
-30.84
-37.21
-44.06
-50.60
-55.67
-58.05
-56.65
-50.93
-41.11
-28.20
-13.72
0.66
13.58
24.20
32.18
37.57
40.54
41.33
40.23
37.67
34.28
30.83
28.08
26.51
26.20
26.78
27.62
28.09
27.84
26.79
25.09
22.91
20.24
16.91
12.74
7.72
2.07
-3.80
-9.49
-14.75
-19.61
-24.30
-29.11
-34.31
-40.08
-46.45
-53.26
-60.02
-65.81
-69.43
-69.60
-65.45
-56.86
-44.60
-30.12
-15.09
-0.98
11.27
21.25
28.82
33.99
36.74
37.22
35.80
33.20
30.36
28.18
27.26
27.71
29.19
31.09
32.78
33.84
34.09
33.58
32.43
30.66
28.22
24.94
20.72
15.63
9.90
3.83
-2.27
-8.28
-14.23
-20.29
-26.66
-33.52
-40.90
-48.53
-55.80
-61.66
-64.88
-64.30
-59.32
-50.13
-37.75
-23.73
-9.70
3.04
13.64
21.73
27.16
29.93
30.17
28.26
24.85
20.83
17.12
14.41
13.03
12.88
13.57
14.58
15.45
15.86
15.66
14.75
13.10
10.63
7.34
3.27
-1.37
-6.32
-11.29
-16.05
-20.55
-24.89
-29.29
-34.08
-39.61
-46.10
-53.53
-61.45
-68.89
-74.48
-76.70
-74.41
-67.23
-55.72
-41.29
-25.74
-10.78
2.34
12.92
20.70
25.71
28.08
28.06
26.10
22.85
19.13
15.75
13.33
12.13
12.11
12.89
14.04
15.11
15.86
16.21
16.21
15.90
15.20
13.96
11.97
9.12
5.52
1.44
-2.83
-7.10
-11.42
-15.99
-21.09
-26.86
-33.28
-40.00
-46.37
-51.48
-54.23
-53.52
-48.63
-39.45
-26.63
-11.53
4.18
18.87
31.35
40.98
47.63
51.45
52.72
51.83
49.26
45.68
41.88
38.62
36.35
35.07
34.34
33.51
32.04
29.79
27.07
24.42
22.26
20.66
19.27
17.51
14.86
11.13
6.53
1.44
-3.76
-8.95
-14.23
-19.88
-26.17
-33.16
-40.56
-47.75
-53.74
-57.46
-57.91
-54.48
-47.16
-36.56
-23.83
-10.34
2.50
13.60
22.19
27.95
30.89
31.35
29.87
27.12
23.78
20.45
17.58
15.49
14.33
14.14
14.78
15.94
17.25
18.37
19.05
19.23
18.93
18.14
16.79
14.75
11.96
8.55
4.79
1.04
-2.45
-5.66
-8.88
-12.49
-16.83
-21.88
-27.17
-31.74
-34.38
-33.94
-29.70
-21.64
-10.53
2.27
15.14
26.62
35.64
41.67
44.69
45.00
43.12
39.71
35.45
31.00
26.96
23.76
21.65
20.68
20.71
21.42
22.39
23.23
23.58
23.26
22.26
20.66
18.60
16.18
13.40
10.20
6.51
2.25
-2.61
-8.12
-14.32
-21.20
-28.60
-36.06
-42.73
-47.52
-49.28
-47.17
-40.96
-31.16
-18.90
-5.62
7.29
18.72
27.97
34.69
38.76
40.26
39.41
36.68
32.70
28.22
24.00
20.61
18.35
17.20
16.89
17.03
17.22
17.16
16.68
15.72
14.29
12.39
10.05
7.30
4.15
0.69
-3.01
-6.86
-10.87
-15.17
-20.01
-25.60
-31.95
-38.67
-44.89
-49.36
-50.77
-48.21
-41.44
-31.03
-18.20
-4.45
8.76
20.34
29.60
36.20
40.11
41.42
40.48
37.79
34.04
29.94
26.10
22.95
20.65
19.19
18.41
18.11
18.04
17.93
17.47
16.36
14.36
11.35
7.41
2.79
-2.14
-6.99
-11.50
-15.59
-19.41
-23.23
-27.43
-32.27
-37.86
-43.95
-49.85
-54.51
-56.63
-55.05
-49.13
-39.01
-25.68
-10.75
4.01
17.13
27.73
35.52
40.61
43.31
43.90
42.72
40.24
37.11
34.11
31.93
30.95
31.15
32.12
33.35
34.39
35.04
35.26
35.14
34.63
33.62
31.87
29.15
25.34
20.44
14.59
8.07
1.18
-5.83
-12.84
-19.90
-27.15
-34.71
-42.44
-49.78
-55.77
-59.21
-59.02
-54.61
-46.13
-34.47
-21.09
-7.59
4.64
14.67
22.03
26.63
28.58
28.14
25.75
22.01
17.71
13.68
10.59
8.76
8.14
8.37
8.95
9.48
9.72
9.67
9.38
8.85
7.95
6.44
4.05
0.69
-3.48
-8.11
-12.72
-17.00
-20.87
-24.53
-28.36
-32.74
-37.90
-43.80
-50.12
-56.14
-60.85
-63.06
-61.74
-56.29
-46.87
-34.45
-20.49
-6.63
5.84
16.15
24.00
29.37
32.35
33.10
31.89
29.24
25.94
22.85
20.66
19.71
19.90
20.84
22.06
23.24
24.24
25.09
25.84
26.35
26.33
25.33
23.00
19.26
14.37
8.92
3.50
-1.43
-5.76
-9.67
-13.55
-17.76
-22.53
-27.88
-33.65
-39.41
-44.50
-48.03
-48.97
-46.47
-40.13
-30.29
-18.00
-4.76
7.83
18.52
26.60
31.87
34.48
34.74
33.03
29.83
25.78
21.60
18.02
15.51
14.22
13.93
14.20
14.59
14.80
14.79
14.60
14.32
13.88
13.06
11.58
9.21
5.90
1.89
-2.43
-6.64
-10.45
-13.85
-17.06
-20.44
-24.32
-28.82
-33.78
-38.71
-42.79
-45.08
-44.68
-41.01
-33.96
-24.05
-12.28
0.14
12.01
22.35
30.50
36.10
38.97
39.16
36.91
32.76
27.48
22.02
17.31
14.01
12.37
12.13
12.72
13.47
13.85
13.70
13.11
12.26
11.17
9.67
7.45
4.29
0.26
-4.30
-8.88
-13.12
-16.93
-20.53
-24.29
-28.55
-33.46
-38.99
-44.85
-50.46
-54.99
-57.33
-56.38
-51.38
-42.25
-29.74
-15.34
-0.82
12.24
22.78
30.41
35.17
37.36
37.33
35.45
32.23
28.29
24.38
21.19
19.12
18.17
18.00
18.14
18.18
17.99
17.60
17.13
16.55
15.62
13.99
11.30
7.48
2.74
-2.46
-7.62
-12.44
-16.89
-21.19
-25.66
-30.61
-36.13
-42.14
-48.24
-53.75
-57.72
-59.10
-57.01
-51.01
-41.36
-29.05
-15.51
-2.30
9.31
18.55
25.11
29.03
30.50
29.84
27.47
23.96
19.99
16.22
13.18
11.12
10.02
9.67
9.74
9.96
10.12
10.14
9.94
9.46
8.58
7.12
4.89
1.82
-2.03
-6.41
-10.96
-15.43
-19.72
-24.00
-28.61
-33.89
-39.95
-46.57
-53.07
-58.44
-61.50
-61.17
-56.83
-48.46
-36.77
-23.05
-8.82
4.48
15.76
24.45
30.39
33.70
34.60
33.36
30.38
26.20
21.61
17.47
14.52
13.09
13.04
13.80
14.68
15.15
15.07
14.57
13.87
13.00
11.70
9.59
6.40
2.19
-2.59
-7.34
-11.58
-15.15
-18.24
-21.32
-24.86
-29.18
-34.32
-39.99
-45.57
-50.14
-52.63
-52.04
-47.68
-39.53
-28.22
-14.98
-1.30
11.44
22.21
30.41
35.87
38.67
39.12
37.65
34.82
31.24
27.55
24.24
21.63
19.84
18.80
18.34
18.23
18.24
18.18
17.86
17.09
15.69
13.48
10.39
6.52
2.11
-2.44
-6.79
-10.70
-14.20
-17.53
-21.06
-25.18
-30.14
-35.96
-42.26
-48.24
-52.72
-54.38
-52.19
-45.72
-35.41
-22.44
-8.43
5.04
16.76
26.06
32.69
36.71
38.30
37.75
35.46
31.97
27.97
24.15
21.07
19.07
18.19
18.23
18.83
19.58
20.12
20.19
19.62
18.32
16.26
13.44
9.95
5.89
1.46
-3.17
-7.79
-12.27
-16.61
-20.92
-25.45
-30.46
-36.07
-42.11
-47.98
-52.69
-55.07
-54.11
-49.26
-40.68
-29.21
-16.17
-2.94
9.27
19.70
27.93
33.84
37.40
38.65
37.79
35.24
31.67
27.93
24.78
22.75
21.94
22.13
22.87
23.72
24.34
24.56
24.25
23.36
21.75
19.35
16.10
12.10
7.54
2.64
-2.37
-7.36
-12.31
-17.30
-22.46
-27.98
-34.01
-40.57
-47.43
-53.92
-59.02
-61.50
-60.31
-54.93
-45.64
-33.45
-19.89
-6.49
5.54
15.47
23.04
28.23
31.13
31.94
30.96
28.75
25.98
23.35
21.36
20.17
19.65
19.51
19.52
19.58
19.68
19.83
19.89
19.66
18.89
17.40
15.16
12.28
8.96
5.45
1.96
-1.42
-4.75
-8.19
-12.01
-16.48
-21.74
-27.66
-33.73
-39.08
-42.56
-43.03
-39.70
-32.41
-21.76
-8.97
4.45
17.06
27.85
36.24
42.05
45.30
46.15
44.91
42.03
38.14
33.99
30.21
27.27
25.32
24.23
23.72
23.45
23.11
22.45
21.28
19.41
16.68
13.01
8.45
3.26
-2.17
-7.40
-12.10
-16.17
-19.76
-23.20
-26.85
-30.99
-35.74
-40.92
-46.07
-50.43
-53.02
-52.87
-49.32
-42.23
-32.14
-20.10
-7.40
4.71
15.30
23.75
29.75
33.21
34.24
33.18
30.59
27.19
23.76
20.93
19.11
18.36
18.49
19.10
19.74
20.05
19.86
19.16
18.02
16.50
14.58
12.19
9.29
5.93
2.33
-1.31
-4.87
-8.41
-12.20
-16.54
-21.61
-27.31
-33.13
-38.26
-41.66
-42.35
-39.66
-33.44
-24.15
-12.77
-0.58
11.13
21.36
29.44
35.09
38.26
39.10
37.91
35.18
31.52
27.61
24.02
21.16
19.17
17.94
17.26
16.85
16.50
16.05
15.36
14.27
12.63
10.30
7.22
3.45
-0.83
-5.33
-9.82
-14.16
-18.39
-22.73
-27.43
-32.64
-38.21
-43.62
-47.97
-50.19
-49.34
-44.90
-36.96
-26.29
-14.10
-1.83
9.27
18.29
24.77
28.65
30.17
29.69
27.66
24.57
20.96
17.41
14.45
12.51
11.79
12.16
13.20
14.27
14.79
14.35
12.86
10.53
7.70
4.74
1.83
-1.03
-3.94
-7.08
-10.53
-14.34
-18.48
-22.92
-27.56
-32.09
-35.87
-37.92
-37.07
-32.41
-23.65
-11.41
2.85
17.21
29.85
39.56
45.91
49.16
49.93
48.87
46.43
42.89
38.49
33.55
28.55
23.99
20.23
17.38
15.28
13.58
11.93
10.13
8.11
5.91
3.61
1.25
-1.22
-3.89
-6.84
-10.18
-14.02
-18.41
-23.38
-28.86
-34.63
-40.21
-44.84
-47.59
-47.58
-44.19
-37.35
-27.56
-15.84
-3.45
8.38
18.65
26.74
32.35
35.49
36.35
35.37
33.08
30.06
26.83
23.79
21.23
19.28
17.97
17.26
16.94
16.79
16.49
15.73
14.27
11.96
8.78
4.83
0.30
-4.56
-9.53
-14.53
-19.63
-24.98
-30.78
-36.98
-43.22
-48.75
-52.54
-53.58
-51.15
-45.09
-35.93
-24.76
-12.97
-1.99
7.10
13.66
17.54
18.96
18.38
16.34
13.37
9.98
6.59
3.57
1.21
-0.34
-1.01
-0.92
-0.30
0.50
1.10
1.16
0.48
-0.95
-3.04
-5.63
-8.58
-11.81
-15.29
-19.05
-23.12
-27.58
-32.48
-37.77
-43.12
-47.88
-51.08
-51.68
-48.90
-42.58
-33.25
-22.07
-10.45
0.29
9.25
15.95
20.34
22.57
22.86
21.46
18.69
15.00
10.98
7.25
4.38
2.68
2.12
2.40
3.05
3.63
3.86
3.62
2.89
1.67
-0.10
-2.46
-5.42
-8.88
-12.67
-16.65
-20.76
-25.07
-29.71
-34.77
-40.06
-45.03
-48.82
-50.39
-48.85
-43.75
-35.29
-24.28
-11.96
0.26
11.19
19.94
26.04
29.35
30.02
28.37
24.92
20.34
15.41
10.90
7.42
5.32
4.60
4.92
5.77
6.64
7.12
6.98
6.15
4.66
2.55
-0.12
-3.21
-6.60
-10.13
-13.76
-17.57
-21.80
-26.71
-32.38
-38.53
-44.41
-48.88
-50.71
-48.95
-43.22
-33.92
-22.09
-9.16
3.41
14.43
23.13
29.17
32.53
33.43
32.24
29.44
25.65
21.53
17.69
14.62
12.58
11.59
11.48
11.92
12.54
12.91
12.72
11.78
10.04
7.65
4.87
1.92
-1.11
-4.27
-7.72
-11.57
-15.91
-20.72
-25.96
-31.48
-36.93
-41.58
-44.39
-44.19
-40.11
-32.03
-20.72
-7.63
5.50
17.23
26.66
33.45
37.63
39.32
38.69
36.00
31.77
26.74
21.82
17.81
15.18
13.97
13.86
14.34
14.95
15.30
15.14
14.30
12.71
10.39
7.44
4.05
0.44
-3.26
-7.00
-10.90
-15.17
-20.04
-25.69
-32.12
-38.94
-45.34
-50.15
-52.08
-50.13
-43.98
-34.15
-21.89
-8.77
3.70
14.44
22.87
28.82
32.39
33.81
33.40
31.56
28.75
25.52
22.33
19.61
17.64
16.57
16.35
16.78
17.46
17.95
17.85
16.96
15.22
12.74
9.65
6.09
2.13
-2.15
-6.63
-11.26
-16.02
-21.04
-26.42
-32.15
-37.89
-42.94
-46.30
-46.95
-44.17
-37.75
-28.14
-16.32
-3.58
8.76
19.58
28.09
33.90
36.96
37.52
36.03
33.07
29.32
25.45
22.04
19.58
18.33
18.32
19.37
21.02
22.72
23.92
24.22
23.50
21.88
19.65
17.10
14.43
11.63
8.62
5.22
1.35
-3.07
-8.04
-13.50
-19.31
-25.04
-29.95
-33.04
-33.23
-29.80
-22.62
-12.37
-0.34
11.91
22.96
31.85
38.19
41.99
43.53
43.12
41.04
37.62
33.24
28.45
23.86
20.08
17.49
16.16
15.82
15.98
16.09
15.77
14.82
13.26
11.17
8.64
5.75
2.53
-0.94
-4.57
-8.30
-12.16
-16.27
-20.82
-25.93
-31.50
-37.09
-41.90
-44.89
-45.04
-41.71
-34.86
-25.13
-13.72
-2.04
8.59
17.25
23.49
27.24
28.67
28.11
25.98
22.75
18.97
15.20
11.93
9.48
7.96
7.31
7.31
7.70
8.24
8.67
8.76
8.29
7.11
5.13
2.42
-0.86
-4.45
-8.12
-11.74
-15.33
-19.05
-23.13
-27.76
-32.91
-38.23
-42.97
-46.12
-46.63
-43.73
-37.27
-27.81
-16.47
-4.66
6.33
15.56
22.56
27.19
29.52
29.73
28.11
25.06
21.18
17.21
13.83
11.57
10.67
11.01
12.17
13.61
14.78
15.29
14.99
13.91
12.23
10.11
7.66
4.89
1.76
-1.73
-5.49
-9.45
-13.59
-18.05
-23.06
-28.76
-34.99
-41.07
-45.85
-48.02
-46.50
-40.88
-31.62
-19.92
-7.41
4.39
14.42
22.15
27.51
30.69
31.89
31.33
29.29
26.19
22.61
19.18
16.45
14.71
13.93
13.88
14.19
14.54
14.69
14.53
13.98
12.94
11.28
8.89
5.76
2.02
-2.06
-6.20
-10.20
-14.10
-18.09
-22.48
-27.48
-33.01
-38.67
-43.64
-46.85
-47.24
-43.98
-36.90
-26.52
-14.06
-1.11
10.81
20.62
27.83
32.48
34.87
35.33
34.15
31.59
28.05
24.10
20.43
17.64
16.07
15.68
16.08
16.76
17.28
17.43
17.16
16.52
15.46
13.78
11.26
7.80
3.56
-1.05
-5.53
-9.52
-13.04
-16.42
-20.19
-24.77
-30.19
-36.02
-41.34
-45.03
-46.02
-43.62
-37.69
-28.73
-17.77
-6.16
4.81
14.11
21.17
25.83
28.27
28.84
27.89
25.82
23.05
20.01
17.19
14.97
13.61
13.11
13.32
13.88
14.43
14.68
14.43
13.59
12.10
9.92
7.09
3.73
0.08
-3.55
-6.91
-9.94
-12.80
-15.83
-19.44
-23.88
-29.07
-34.56
-39.55
-43.05
-44.06
-41.86
-36.22
-27.52
-16.75
-5.23
5.68
14.92
21.91
26.51
28.90
29.42
28.44
26.37
23.66
20.79
18.22
16.31
15.25
15.04
15.54
16.48
17.57
18.51
19.07
19.00
18.15
16.38
13.67
10.09
5.84
1.27
-3.25
-7.45
-11.21
-14.69
-18.20
-22.12
-26.73
-32.00
-37.50
-42.37
-45.51
-45.81
-42.56
-35.71
-25.96
-14.63
-3.19
7.09
15.44
21.56
25.51
27.45
27.56
26.07
23.35
19.96
16.57
13.71
11.70
10.58
10.15
10.22
10.67
11.41
12.36
13.29
13.86
13.70
12.50
10.14
6.74
2.59
-1.89
-6.28
-10.27
-13.77
-16.90
-20.03
-23.58
-27.86
-32.84
-38.05
-42.65
-45.57
-45.82
-42.79
-36.43
-27.27
-16.32
-4.81
6.06
15.38
22.58
27.40
29.87
30.22
28.86
26.31
23.21
20.19
17.72
16.05
15.19
14.97
15.18
15.66
16.28
16.94
17.46
17.59
17.05
15.70
13.51
10.66
7.38
3.90
0.34
-3.26
-6.99
-10.96
-15.25
-19.92
-24.95
-30.15
-35.10
-39.16
-41.45
-41.11
-37.56
-30.72
-21.16
-9.98
1.47
12.02
20.86
27.67
32.45
35.34
36.46
35.92
33.93
30.92
27.53
24.43
22.17
20.96
20.72
21.11
21.71
22.17
22.28
21.90
21.01
19.62
17.75
15.41
12.62
9.46
6.04
2.52
-0.96
-4.36
-7.78
-11.41
-15.49
-20.11
-25.11
-29.98
-33.94
-36.06
-35.49
-31.78
-25.06
-15.99
-5.63
4.83
14.41
22.42
28.53
32.59
34.61
34.66
32.97
29.97
26.22
22.44
19.23
17.02
15.94
15.86
16.46
17.32
18.07
18.41
18.18
17.29
15.73
13.51
10.72
7.47
3.97
0.40
-3.08
-6.43
-9.77
-13.26
-17.10
-21.38
-26.01
-30.70
-34.94
-38.09
-39.46
-38.45
-34.75
-28.42
-20.01
-10.36
-0.52
8.56
16.22
22.14
26.37
29.11
30.55
30.79
29.89
28.00
25.43
22.63
20.04
17.86
16.02
14.15
11.84
8.80
5.02
0.71
-3.84
-8.40
-12.88
-17.33
-21.77
-26.19
-30.48
-34.59
-38.55
-42.53
-46.73
-51.34
-56.28
-61.22
-65.55
-68.46
-69.14
-66.92
-61.48
-52.97
-42.03
-29.71
-17.19
-5.60
4.30
12.13
17.85
21.63
23.65
24.09
23.18
21.26
18.78
16.23
13.97
12.15
10.79
9.79
9.09
8.68
8.50
8.43
8.22
7.57
6.30
4.43
2.19
-0.05
-1.97
-3.40
-4.44
-5.38
-6.69
-8.81
-11.96
-16.00
-20.31
-23.85
-25.49
-24.32
-19.99
-12.81
-3.62
6.47
16.41
25.31
32.55
37.67
40.38
40.57
38.39
34.31
29.04
23.42
18.19
13.85
10.61
8.42
7.04
6.16
5.39
4.41
2.95
0.96
-1.45
-3.94
-6.13
-7.63
-8.27
-8.03
-7.14
-5.98
-4.97
-4.48
-4.66
-5.33
-5.96
-5.66
-3.57
0.98
8.09
17.25
27.46
37.49
46.31
53.27
58.22
61.37
63.11
63.78
63.59
62.67
61.16
59.27
57.29
55.52
54.07
52.82
51.46
49.60
46.97
43.57
39.62
35.47
31.39
27.47
23.56
19.35
14.60
9.10
2.82
-4.25
-12.03
-20.38
-28.96
-37.16
-44.06
-48.68
-50.22
-48.46
-43.83
-37.31
-30.22
-23.69
-18.51
-14.97
-12.99
-12.39
-13.04
-14.88
-17.82
-21.63
-25.86
-29.97
-33.47
-36.02
-37.56
-38.13
-37.85
-36.75
-34.84
-32.12
-28.69
-24.79
-20.75
-16.96
-13.82
-11.79
-11.24
-12.37
-15.06
-18.67
-22.15
-24.17
-23.48
-19.35
-11.71
-1.18
11.20
24.24
37.01
48.83
59.34
68.27
75.36
80.30
82.82
82.91
80.84
77.20
72.74
68.13
63.78
59.79
55.98
52.14
48.12
43.85
39.35
34.59
29.51
24.01
18.10
11.90
5.58
-0.73
-7.06
-13.66
-20.81
-28.62
-36.86
-44.87
-51.68
-56.25
-57.73
-55.77
-50.57
-42.83
-33.55
-23.78
-14.40
-6.04
0.82
5.90
9.00
10.09
9.40
7.42
4.91
2.60
1.02
0.38
0.51
1.07
1.68
2.12
2.26
2.12
1.69
0.98
-0.07
-1.50
-3.39
-5.78
-8.76
-12.37
-16.56
-21.06
-25.31
-28.47
-29.64
-28.16
-23.83
-17.09
-8.90
-0.38
7.43
13.93
18.88
22.29
24.19
24.47
23.06
20.03
15.81
11.13
6.84
3.51
1.22
-0.52
-2.41
-5.11
-8.81
-13.15
-17.47
-21.12
-23.78
-25.59
-27.03
-28.66
-30.86
-33.81
-37.45
-41.67
-46.24
-50.69
-54.29
-56.00
-54.80
-50.04
-41.82
-31.04
-19.21
-7.93
1.56
8.62
13.20
15.54
15.96
14.66
11.80
7.64
2.57
-2.83
-8.01
-12.54
-16.29
-19.38
-22.01
-24.36
-26.51
-28.37
-29.89
-31.10
-32.24
-33.66
-35.73
-38.64
-42.36
-46.68
-51.31
-56.00
-60.44
-64.18
-66.53
-66.58
-63.50
-56.89
-46.99
-34.80
-21.71
-9.18
1.65
10.09
15.92
19.14
19.92
18.55
15.47
11.29
6.75
2.53
-0.93
-3.54
-5.52
-7.29
-9.25
-11.64
-14.39
-17.26
-19.91
-22.12
-23.82
-25.22
-26.69
-28.69
-31.63
-35.74
-40.97
-46.83
-52.43
-56.56
-57.92
-55.54
-49.03
-38.78
-25.85
-11.70
2.17
14.52
24.51
31.68
35.89
37.24
36.01
32.70
27.96
22.57
17.27
12.63
8.92
6.16
4.09
2.36
0.64
-1.32
-3.62
-6.24
-9.08
-12.01
-14.97
-17.93
-20.99
-24.34
-28.23
-32.92
-38.52
-44.84
-51.27
-56.73
-59.86
-59.34
-54.26
-44.51
-30.88
-14.86
1.74
17.20
30.30
40.39
47.32
51.22
52.36
51.03
47.60
42.57
36.58
30.37
24.62
19.83
16.17
13.47
11.33
9.20
6.66
3.46
-0.40
-4.72
-9.24
-13.72
-18.05
-22.25
-26.47
-30.96
-36.04
-41.97
-48.80
-56.13
-63.04
-68.08
-69.68
-66.63
-58.51
-45.93
-30.32
-13.52
2.77
17.19
28.97
37.65
43.07
45.34
44.81
42.12
38.09
33.55
29.15
25.30
22.19
19.79
18.01
16.65
15.43
14.07
12.31
10.05
7.34
4.34
1.20
-2.00
-5.39
-9.12
-13.41
-18.45
-24.34
-31.11
-38.62
-46.42
-53.58
-58.76
-60.49
-57.51
-49.26
-36.15
-19.57
-1.46
16.08
31.35
43.30
51.56
56.29
58.00
57.29
54.78
51.04
46.60
41.94
37.48
33.54
30.23
27.48
25.06
22.65
20.00
16.97
13.58
9.91
6.07
2.09
-2.08
-6.52
-11.35
-16.61
-22.39
-28.75
-35.75
-43.34
-51.07
-58.06
-62.95
-64.23
-60.71
-51.95
-38.57
-22.07
-4.46
12.31
26.72
37.92
45.65
50.09
51.65
50.86
48.26
44.42
39.86
35.09
30.48
26.34
22.83
19.99
17.68
15.69
13.69
11.39
8.53
4.98
0.75
-4.03
-9.16
-14.46
-19.86
-25.42
-31.32
-37.87
-45.30
-53.66
-62.64
-71.41
-78.62
-82.68
-82.07
-75.86
-64.06
-47.72
-28.78
-9.53
7.84
21.79
31.49
36.91
38.52
37.01
33.19
27.74
21.34
14.66
8.39
3.13
-0.71
-3.12
-4.49
-5.55
-7.10
-9.71
-13.55
-18.35
-23.63
-28.95
-34.08
-39.11
-44.33
-50.06
-56.49
-63.70
-71.67
-80.27
-89.21
-97.86
-105.07
-109.31
-108.90
-102.51
-89.75
-71.34
-49.06
-25.25
-2.28
18.03
34.62
47.10
55.59
60.43
62.08
61.09
58.13
54.04
49.67
45.75
42.77
40.81
39.63
38.83
38.00
36.86
35.30
33.27
30.73
27.58
23.67
18.90
13.25
6.84
-0.21
-7.88
-16.30
-25.64
-35.91
-46.69
-56.96
-65.17
-69.53
-68.47
-61.17
-47.84
-29.73
-8.83
12.59
32.46
49.26
62.14
70.78
75.32
76.19
73.99
69.44
63.39
56.75
50.42
45.18
41.46
39.31
38.43
38.19
37.97
37.27
35.84
33.66
30.75
27.17
22.85
17.73
11.81
5.17
-2.08
-9.94
-18.51
-27.89
-37.88
-47.71
-55.99
-60.94
-60.86
-54.76
-42.68
-25.80
-6.13
13.99
32.42
47.65
58.80
65.65
68.40
67.47
63.46
57.15
49.53
41.72
34.80
29.52
26.14
24.36
23.46
22.58
21.07
18.64
15.36
11.53
7.42
3.17
-1.32
-6.29
-12.04
-18.84
-26.85
-36.15
-46.62
-57.76
-68.60
-77.67
-83.15
-83.35
-77.20
-64.74
-47.11
-26.33
-4.71
15.68
33.32
47.32
57.26
63.02
64.76
62.99
58.54
52.61
46.43
41.05
37.12
34.76
33.74
33.60
33.86
34.05
33.76
32.66
30.55
27.39
23.29
18.45
12.98
6.88
0.00
-7.88
-16.97
-27.32
-38.70
-50.37
-61.08
-69.09
-72.56
-69.97
-60.70
-45.26
-25.32
-3.18
18.74
38.50
54.86
67.21
75.43
79.66
80.20
77.61
72.73
66.60
60.36
54.93
50.85
48.24
46.88
46.31
46.01
45.47
44.27
42.10
38.83
34.50
29.31
23.49
17.22
10.59
3.50
-4.23
-12.81
-22.41
-32.95
-43.89
-54.14
-62.09
-65.94
-64.20
-56.27
-42.64
-24.88
-5.12
14.50
32.27
47.09
58.41
66.00
69.92
70.42
68.10
63.80
58.52
53.18
48.43
44.60
41.73
39.72
38.37
37.45
36.66
35.65
34.06
31.62
28.19
23.79
18.54
12.62
6.18
-0.67
-7.86
-15.33
-23.08
-31.16
-39.61
-48.28
-56.63
-63.65
-67.88
-67.84
-62.47
-51.61
-36.13
-17.82
1.18
18.86
33.79
45.24
53.01
57.24
58.26
56.56
52.81
47.86
42.60
37.86
34.15
31.65
30.21
29.51
29.17
28.81
28.11
26.77
24.54
21.28
16.97
11.77
5.97
-0.13
-6.27
-12.35
-18.47
-24.87
-31.86
-39.67
-48.25
-57.16
-65.41
-71.64
-74.32
-72.23
-64.77
-52.25
-35.84
-17.30
1.39
18.42
32.45
42.70
49.00
51.63
51.24
48.67
44.80
40.47
36.35
32.88
30.23
28.36
27.05
26.00
24.90
23.58
21.92
19.86
17.34
14.23
10.44
5.92
0.75
-4.87
-10.74
-16.72
-22.89
-29.49
-36.81
-45.05
-54.09
-63.32
-71.62
-77.54
-79.55
-76.56
-68.20
-55.01
-38.28
-19.74
-1.10
16.23
31.27
43.42
52.32
57.81
59.92
59.06
56.02
51.89
47.85
44.81
43.22
42.95
43.46
44.09
44.29
43.85
42.79
41.25
39.26
36.69
33.35
29.08
23.96
18.32
12.63
7.32
2.59
-1.68
-5.89
-10.61
-16.41
-23.67
-32.45
-42.33
-52.40
-61.28
-67.36
-69.15
-65.65
-56.66
-42.86
-25.66
-6.85
11.76
28.71
42.99
54.08
61.81
66.27
67.72
66.60
63.53
59.28
54.73
50.70
47.79
46.21
45.80
46.09
46.48
46.45
45.67
44.06
41.63
38.44
34.53
29.93
24.71
19.04
13.17
7.34
1.74
-3.58
-8.67
-13.57
-18.30
-22.81
-27.09
-31.17
-35.25
-39.62
-44.54
-50.04
-55.72
-60.70
-63.70
-63.37
-58.65
-49.13
-35.22
-18.04
0.89
19.94
37.70
53.10
65.48
74.55
80.40
83.43
84.29
83.76
82.59
81.34
80.30
79.53
78.82
77.86
76.28
73.80
70.30
65.84
60.62
54.89
48.85
42.59
36.06
29.19
21.87
14.07
5.81
-2.82
-11.68
-20.59
-29.35
-37.76
-45.67
-53.01
-59.88
-66.48
-73.12
-80.02
-87.19
-94.21
-100.19
-103.96
-104.37
-100.71
-92.96
-81.84
-68.61
-54.71
-41.45
-29.81
-20.41
-13.56
-9.33
-7.57
-7.94
-9.88
-12.70
-15.64
-18.02
-19.36
-19.49
-18.58
-17.03
-15.36
-14.02
-13.25
-13.06
-13.30
-13.82
-14.57
-15.65
-17.24
-19.48
-22.42
-25.95
-29.85
-33.82
-37.62
-41.08
-44.12
-46.83
-49.46
-52.39
-56.00
-60.51
-65.78
-71.20
-75.67
-77.83
-76.48
-70.87
-61.03
-47.71
-32.24
-16.04
-0.43
13.61
25.45
34.68
41.11
44.72
45.73
44.60
42.01
38.75
35.54
32.92
31.16
30.29
30.03
30.04
29.91
29.38
28.34
26.84
24.97
22.80
20.25
17.17
13.42
8.99
4.00
-1.27
-6.51
-11.47
-16.08
-20.44
-24.82
-29.49
-34.69
-40.51
-46.74
-52.84
-57.90
-60.81
-60.47
-56.12
-47.64
-35.64
-21.30
-6.12
8.46
21.34
31.82
39.57
44.53
46.84
46.80
44.89
41.76
38.12
34.59
31.62
29.42
27.92
26.94
26.24
25.62
24.92
24.01
22.78
21.09
18.83
15.91
12.26
7.94
3.11
-1.94
-6.85
-11.29
-15.17
-18.64
-22.09
-26.07
-30.99
-36.98
-43.75
-50.59
-56.48
-60.26
-60.90
-57.77
-50.82
-40.65
-28.35
-15.24
-2.58
8.67
17.90
24.74
29.05
30.83
30.29
27.86
24.20
20.04
16.05
12.71
10.23
8.60
7.71
7.34
7.32
7.40
7.32
6.81
5.63
3.67
0.93
-2.42
-6.24
-10.37
-14.74
-19.33
-24.04
-28.75
-33.33
-37.75
-42.15
-46.72
-51.46
-55.97
-59.37
-60.51
-58.38
-52.49
-43.14
-31.21
-17.95
-4.57
7.93
18.80
27.51
33.65
37.01
37.64
35.96
32.65
28.56
24.47
20.97
18.39
16.77
15.97
15.69
15.61
15.44
14.92
13.84
12.04
9.47
6.19
2.44
-1.48
-5.30
-8.89
-12.38
-16.05
-20.26
-25.29
-31.25
-38.11
-45.62
-53.29
-60.25
-65.33
-67.17
-64.70
-57.49
-46.05
-31.76
-16.48
-1.97
10.49
20.28
27.36
31.94
34.34
34.87
33.84
31.66
28.82
25.86
23.21
21.15
19.77
18.99
18.65
18.58
18.59
18.47
18.03
17.02
15.25
12.61
9.14
5.03
0.54
-4.10
-8.80
-13.62
-18.81
-24.66
-31.39
-38.95
-46.92
-54.40
-60.11
-62.74
-61.25
-55.28
-45.23
-32.16
-17.50
-2.66
11.14
22.97
32.18
38.32
41.31
41.41
39.25
35.72
31.73
27.98
24.86
22.47
20.74
19.55
18.82
18.46
18.35
18.32
18.15
17.58
16.43
14.51
11.74
8.08
3.58
-1.57
-7.10
-12.68
-18.04
-23.07
-27.90
-32.78
-37.90
-43.14
-47.94
-51.31
-52.13
-49.49
-43.01
-33.09
-20.71
-7.26
5.87
17.51
26.83
33.40
37.07
37.98
36.49
33.15
28.66
23.77
19.16
15.35
12.67
11.16
10.66
10.85
11.36
11.84
11.98
11.60
10.56
8.83
6.46
3.54
0.21
-3.44
-7.31
-11.40
-15.79
-20.61
-25.95
-31.87
-38.14
-44.25
-49.33
-52.27
-51.99
-47.74
-39.43
-27.72
-13.94
0.29
13.39
24.17
31.96
36.63
38.42
37.78
35.29
31.54
27.15
22.66
18.60
15.31
13.02
11.74
11.28
11.32
11.46
11.33
10.60
9.08
6.68
3.47
-0.40
-4.74
-9.36
-14.10
-18.93
-23.91
-29.22
-35.08
-41.55
-48.41
-54.99
-60.17
-62.67
-61.32
-55.56
-45.56
-32.25
-17.07
-1.55
12.95
25.43
35.27
42.15
46.04
47.12
45.84
42.84
38.86
34.63
30.73
27.59
25.42
24.23
23.83
23.82
23.75
23.11
21.58
19.01
15.46
11.16
6.42
1.50
-3.38
-8.16
-12.89
-17.75
-23.03
-28.98
-35.67
-42.81
-49.69
-55.22
-58.18
-57.52
-52.69
-43.78
-31.54
-17.23
-2.28
11.95
24.47
34.64
42.21
47.11
49.48
49.58
47.83
44.85
41.34
37.97
35.26
33.44
32.48
32.19
32.28
32.45
32.41
31.89
30.63
28.53
25.58
21.92
17.73
13.18
8.32
3.13
-2.46
-8.45
-14.81
-21.45
-28.26
-35.02
-41.30
-46.40
-49.40
-49.33
-45.46
-37.64
-26.37
-12.78
1.66
15.44
27.31
36.46
42.57
45.70
46.23
44.67
41.64
37.79
33.74
30.08
27.26
25.52
24.82
24.88
25.22
25.40
25.08
24.12
22.49
20.23
17.36
13.86
9.76
5.17
0.32
-4.57
-9.37
-14.17
-19.22
-24.81
-31.12
-37.89
-44.45
-49.73
-52.54
-51.87
-47.24
-38.85
-27.62
-14.87
-2.05
9.58
19.17
26.27
30.72
32.58
32.06
29.56
25.65
21.12
16.75
13.19
10.77
9.47
9.03
9.05
9.16
9.09
8.66
7.69
6.09
3.78
0.77
-2.79
-6.72
-10.88
-15.17
-19.61
-24.30
-29.38
-34.93
-40.95
-47.21
-53.22
-58.17
-61.02
-60.78
-56.73
-48.76
-37.40
-23.79
-9.36
4.46
16.52
26.08
32.80
36.73
38.11
37.34
34.90
31.35
27.26
23.26
19.91
17.62
16.53
16.53
17.18
17.95
18.29
17.83
16.43
14.15
11.15
7.63
3.74
-0.43
-4.84
-9.46
-14.35
-19.56
-25.27
-31.60
-38.54
-45.78
-52.56
-57.74
-60.04
-58.40
-52.40
-42.39
-29.43
-14.98
-0.52
12.82
24.31
33.57
40.42
44.78
46.69
46.36
44.29
41.18
37.83
34.85
32.62
31.16
30.25
29.57
28.83
27.92
26.85
25.74
24.60
23.30
21.54
18.96
15.35
10.75
5.48
-0.03
-5.40
-10.47
-15.38
-20.42
-25.93
-32.05
-38.71
-45.52
-51.82
-56.73
-59.25
-58.51
-54.00
-45.76
-34.41
-21.01
-6.80
7.04
19.54
30.04
38.05
43.34
45.85
45.83
43.82
40.57
36.90
33.58
31.11
29.72
29.34
29.68
30.32
30.85
30.93
30.38
29.17
27.36
25.01
22.16
18.74
14.68
9.98
4.74
-0.79
-6.33
-11.64
-16.57
-21.13
-25.47
-29.84
-34.48
-39.56
-45.07
-50.68
-55.73
-59.30
-60.35
-58.07
-52.06
-42.60
-30.47
-16.89
-3.12
9.67
20.58
28.98
34.49
37.01
36.76
34.27
30.38
26.07
22.26
19.61
18.34
18.29
19.03
20.02
20.85
21.25
21.11
20.42
19.12
17.15
14.44
10.99
6.91
2.45
-2.11
-6.51
-10.60
-14.37
-17.93
-21.49
-25.31
-29.62
-34.56
-40.05
-45.66
-50.63
-53.94
-54.56
-51.75
-45.29
-35.64
-23.70
-10.71
2.12
13.78
23.49
30.77
35.33
37.13
36.39
33.64
29.61
25.13
21.01
17.78
15.70
14.70
14.49
14.66
14.84
14.77
14.32
13.43
12.05
10.11
7.49
4.11
-0.03
-4.82
-10.05
-15.38
-20.50
-25.21
-29.55
-33.80
-38.41
-43.77
-50.00
-56.71
-62.96
-67.43
-68.85
-66.32
-59.66
-49.40
-36.59
-22.52
-8.39
4.78
16.24
25.38
31.81
35.38
36.26
34.98
32.30
29.07
25.96
23.40
21.52
20.29
19.53
19.08
18.77
18.46
18.03
17.41
16.49
15.09
13.02
10.11
6.30
1.72
-3.33
-8.47
-13.39
-17.98
-22.41
-27.01
-32.18
-38.19
-45.04
-52.29
-59.15
-64.50
-67.17
-66.22
-61.20
-52.31
-40.36
-26.57
-12.24
1.48
13.72
23.94
31.78
37.11
39.96
40.51
39.18
36.53
33.23
29.95
27.24
25.45
24.70
24.82
25.45
26.12
26.46
26.22
25.39
24.04
22.21
19.90
17.02
13.50
9.43
4.98
0.40
-4.18
-8.74
-13.46
-18.53
-24.09
-30.12
-36.37
-42.34
-47.23
-50.11
-50.04
-46.34
-38.78
-27.78
-14.26
0.48
15.12
28.48
39.72
48.30
54.00
56.82
57.02
55.11
51.84
48.06
44.59
42.03
40.61
40.25
40.58
41.18
41.63
41.67
41.15
40.02
38.29
36.04
33.37
30.41
27.25
23.91
20.36
16.55
12.37
7.72
2.47
-3.52
-10.33
-17.86
-25.74
-33.26
-39.46
-43.28
-43.92
-41.00
-34.73
-25.94
-15.78
-5.59
3.48
10.60
15.31
17.54
17.50
15.61
12.47
8.71
4.93
1.66
-0.77
-2.17
-2.57
-2.12
-1.08
0.23
1.45
2.23
2.27
1.40
-0.35
-2.78
-5.55
-8.33
-10.95
-13.47
-16.14
-19.39
-23.57
-28.95
-35.49
-42.87
-50.43
-57.21
-62.09
-63.92
-61.85
-55.58
-45.47
-32.60
-18.46
-4.60
7.66
17.49
24.59
29.06
31.22
31.42
30.00
27.32
23.77
19.83
16.01
12.75
10.31
8.75
7.96
7.70
7.68
7.60
7.14
5.95
3.76
0.44
-3.90
-8.91
-14.15
-19.28
-24.17
-28.99
-34.08
-39.82
-46.39
-53.66
-61.03
-67.52
-71.86
-72.84
-69.62
-61.99
-50.52
-36.39
-21.13
-6.25
7.10
18.13
26.47
31.98
34.75
35.07
33.49
30.72
27.56
24.67
22.45
21.01
20.23
19.90
19.81
19.78
19.67
19.32
18.53
17.12
14.97
12.00
8.26
3.89
-0.91
-5.91
-10.94
-15.94
-21.00
-26.38
-32.36
-39.06
-46.25
-53.20
-58.75
-61.49
-60.16
-54.07
-43.32
-28.89
-12.37
4.39
19.73
32.44
41.91
48.04
51.11
51.55
49.93
46.83
42.81
38.44
34.24
30.63
27.91
26.17
25.26
24.91
24.74
24.41
23.71
22.54
20.88
18.67
15.84
12.25
7.88
2.79
-2.77
-8.50
-14.11
-19.47
-24.63
-29.79
-35.23
-41.01
-46.93
-52.31
-56.15
-57.31
-54.85
-48.39
-38.25
-25.46
-11.46
2.21
14.26
23.80
30.39
33.91
34.61
32.95
29.64
25.49
21.31
17.76
15.22
13.78
13.24
13.25
13.45
13.55
13.39
12.87
11.98
10.62
8.69
6.06
2.72
-1.29
-5.81
-10.66
-15.75
-21.08
-26.75
-32.88
-39.45
-46.24
-52.75
-58.22
-61.71
-62.27
-59.13
-51.99
-41.13
-27.41
-12.13
3.20
17.18
28.70
37.05
42.03
43.78
42.81
39.83
35.68
31.19
27.08
23.86
21.81
20.93
21.01
21.71
22.58
23.22
23.26
22.44
20.59
17.66
13.75
9.05
3.84
-1.62
-7.17
-12.81
-18.63
-24.80
-31.44
-38.59
-46.08
-53.49
-60.07
-64.76
-66.38
-63.93
-56.98
-45.89
-31.79
-16.28
-0.98
12.90
24.64
34.00
40.91
45.35
47.32
46.99
44.81
41.54
38.05
35.05
32.87
31.43
30.44
29.58
28.74
27.96
27.33
26.76
25.94
24.43
21.80
17.86
12.73
6.79
0.49
-5.75
-11.72
-17.39
-22.94
-28.63
-34.74
-41.40
-48.42
-55.17
-60.60
-63.46
-62.61
-57.39
-47.88
-34.81
-19.47
-3.31
12.28
26.22
37.70
46.27
51.76
54.28
54.23
52.21
48.95
45.17
41.49
38.33
35.95
34.40
33.57
33.21
32.96
32.47
31.47
29.77
27.32
24.09
20.05
15.21
9.64
3.59
-2.56
-8.36
-13.50
-17.98
-22.11
-26.44
-31.53
-37.71
-44.85
-52.33
-59.10
-63.86
-65.33
-62.65
-55.53
-44.44
-30.46
-15.03
0.36
14.48
26.42
35.64
41.86
45.02
45.34
43.33
39.77
35.55
31.49
28.20
25.94
24.71
24.27
24.36
24.68
25.00
25.14
24.96
24.28
22.95
20.79
17.70
13.66
8.81
3.40
-2.23
-7.78
-13.07
-18.09
-22.98
-27.97
-33.27
-39.06
-45.30
-51.68
-57.62
-62.20
-64.42
-63.35
-58.43
-49.62
-37.47
-23.01
-7.56
7.48
20.88
31.65
39.21
43.41
44.49
43.08
40.02
36.17
32.29
28.90
26.24
24.36
23.14
22.40
21.95
21.60
21.20
20.60
19.68
18.29
16.27
13.48
9.86
5.43
0.37
-5.06
-10.60
-16.07
-21.45
-26.85
-32.45
-38.36
-44.57
-50.83
-56.63
-61.20
-63.58
-62.84
-58.28
-49.74
-37.72
-23.37
-8.14
6.54
19.58
30.35
38.59
44.23
47.25
47.73
45.93
42.43
38.09
33.83
30.38
28.06
26.79
26.18
25.79
25.30
24.58
23.61
22.33
20.57
18.09
14.70
10.36
5.28
-0.15
-5.50
-10.50
-15.14
-19.69
-24.53
-30.02
-36.29
-43.20
-50.32
-56.90
-61.99
-64.53
-63.59
-58.65
-49.78
-37.69
-23.60
-8.91
5.13
17.57
27.85
35.60
40.64
42.91
42.55
40.07
36.26
32.10
28.46
25.90
24.50
24.04
24.11
24.36
24.56
24.59
24.34
23.59
22.07
19.53
15.88
11.28
6.05
0.58
-4.83
-10.07
-15.25
-20.57
-26.29
-32.56
-39.37
-46.50
-53.55
-59.90
-64.78
-67.35
-66.89
-63.02
-55.80
-45.81
-33.98
-21.45
-9.28
1.66
10.82
17.89
22.77
25.50
26.27
25.44
23.53
21.23
19.25
18.12
18.09
18.98
20.36
21.69
22.51
22.61
22.00
20.72
18.74
15.94
12.16
7.41
1.87
-4.13
-10.27
-16.43
-22.69
-29.31
-36.55
-44.60
-53.42
-62.70
-71.82
-79.84
-85.62
-88.05
-86.35
-80.35
-70.56
-58.07
-44.24
-30.32
-17.25
-5.55
4.60
13.19
20.31
26.12
30.87
34.91
38.67
42.54
46.77
51.40
56.29
61.18
65.76
69.73
72.86
74.95
75.85
75.48
73.87
71.11
67.36
62.81
57.57
51.69
45.15
37.93
30.01
21.39
12.08
2.19
-8.03
-18.03
-26.91
-33.51
-36.74
-35.96
-31.20
-23.24
-13.30
-2.64
7.75
17.21
25.35
31.84
36.33
38.55
38.49
36.48
33.19
29.41
25.81
22.80
20.52
18.88
17.71
16.84
16.12
15.41
14.57
13.43
11.79
9.46
6.36
2.49
-1.98
-6.76
-11.57
-16.23
-20.71
-25.17
-29.86
-35.08
-41.00
-47.54
-54.32
-60.59
-65.31
-67.34
-65.77
-60.19
-50.86
-38.66
-24.95
-11.12
1.66
12.62
21.32
27.58
31.36
32.75
32.02
29.67
26.40
22.94
19.89
17.50
15.74
14.44
13.42
12.63
12.13
11.94
11.95
11.89
11.36
10.05
7.81
4.73
1.04
-3.00
-7.23
-11.58
-16.04
-20.68
-25.53
-30.67
-36.17
-42.01
-47.88
-53.10
-56.65
-57.40
-54.56
-47.90
-37.96
-25.80
-12.68
0.27
12.21
22.56
30.92
36.90
40.28
41.05
39.56
36.44
32.50
28.51
25.09
22.56
20.98
20.24
20.08
20.17
20.23
20.00
19.29
18.00
16.05
13.42
10.17
6.47
2.58
-1.25
-4.81
-8.08
-11.25
-14.66
-18.67
-23.54
-29.33
-35.82
-42.49
-48.58
-53.14
-55.21
-54.00
-49.13
-40.80
-29.79
-17.29
-4.60
7.15
17.12
24.81
30.00
32.66
32.93
31.20
28.13
24.55
21.26
18.85
17.49
17.02
17.01
17.02
16.75
16.13
15.19
14.00
12.55
10.76
8.52
5.74
2.50
-1.07
-4.81
-8.65
-12.64
-16.89
-21.52
-26.59
-32.09
-37.93
-43.84
-49.34
-53.68
-55.86
-54.97
-50.43
-42.24
-31.06
-18.06
-4.53
8.33
19.64
28.83
35.54
39.57
40.96
39.98
37.25
33.57
29.77
26.49
24.07
22.48
21.48
20.78
20.13
19.39
18.52
17.44
16.06
14.21
11.73
8.57
4.77
0.51
-4.00
-8.61
-13.27
-18.02
-22.94
-28.14
-33.68
-39.61
-45.84
-51.98
-57.27
-60.55
-60.63
-56.58
-48.20
-36.09
-21.53
-6.05
8.91
22.33
33.60
42.39
48.58
52.20
53.49
53.01
51.56
50.04
49.19
49.45
50.91
53.37
56.56
60.20
64.11
68.18
72.32
76.45
80.51
84.43
88.18
91.75
95.15
98.45
101.80
105.37
109.35
113.76
118.45
123.04
127.07
130.09
131.84
132.34
131.86
130.92
130.09
129.86
130.48
131.86
133.61
135.14
135.76
134.83
131.85
126.52
118.74
108.64
96.63
83.35
69.62
56.26
43.89
32.88
23.29
14.97
7.69
1.24
-4.61
-10.00
-15.06
-19.87
-24.45
-28.80
-32.87
-36.67
-40.25
-43.76
-47.38
-51.22
-55.30
-59.49
-63.57
-67.36
-70.78
-73.94
-77.15
-80.74
-84.96
-89.75
-94.74
-99.22
-102.38
-103.51
-102.21
-98.48
-92.69
-85.51
-77.70
-70.04
-63.17
-57.60
-53.69
-51.61
-51.29
-52.39
-54.36
-56.49
-58.13
-58.88
-58.63
-57.56
-56.06
-54.53
-53.31
-52.58
-52.42
-52.76
-53.50
-54.51
-55.74
-57.15
-58.71
-60.40
-62.15
-63.78
-65.08
-65.81
-65.78
-64.93
-63.39
-61.48
-59.65
-58.34
-57.72
-57.65
-57.63
-56.96
-55.05
-51.60
-46.77
-41.05
-35.08
-29.48
-24.69
-20.95
-18.37
-16.91
-16.47
-16.84
-17.76
-18.98
-20.28
-21.53
-22.71
-23.85
-25.01
-26.26
-27.67
-29.23
-30.90
-32.57
-34.11
-35.47
-36.65
-37.74
-38.80
-39.88
-41.02
-42.21
-43.53
-45.07
-46.96
-49.32
-52.13
-55.18
-58.00
-59.92
-60.16
-58.09
-53.47
-46.57
-38.20
-29.44
-21.29
-14.47
-9.22
-5.45
-2.95
-1.53
-1.13
-1.71
-3.16
-5.19
-7.35
-9.17
-10.29
-10.59
-10.26
-9.69
-9.32
-9.52
-10.45
-12.05
-14.18
-16.65
-19.39
-22.40
-25.69
-29.16
-32.66
-36.01
-39.16
-42.31
-45.76
-49.76
-54.22
-58.55
-61.75
-62.75
-60.84
-55.86
-48.32
-39.11
-29.24
-19.60
-10.81
-3.32
2.60
6.75
9.10
9.78
9.14
7.73
6.15
4.95
4.46
4.76
5.65
6.76
7.66
7.97
7.44
6.01
3.67
0.51
-3.33
-7.70
-12.43
-17.41
-22.61
-28.18
-34.34
-41.29
-48.96
-56.88
-64.09
-69.25
-70.97
-68.20
-60.61
-48.73
-33.87
-17.72
-2.04
11.85
23.11
31.40
36.71
39.20
39.07
36.69
32.61
27.64
22.71
18.62
15.82
14.27
13.55
13.04
12.17
10.56
8.06
4.69
0.59
-4.10
-9.24
-14.72
-20.52
-26.75
-33.67
-41.61
-50.86
-61.42
-72.75
-83.66
-92.43
-97.06
-95.83
-87.85
-73.41
-53.95
-31.66
-8.95
12.16
30.27
44.65
55.03
61.41
64.02
63.25
59.79
54.58
48.73
43.31
39.11
36.50
35.30
34.94
34.62
33.64
31.52
28.16
23.70
18.41
12.50
6.01
-1.10
-9.00
-17.84
-27.76
-38.89
-51.23
-64.49
-77.89
-89.96
-98.69
-101.94
-98.08
-86.59
-68.34
-45.42
-20.51
3.81
25.66
43.99
58.39
68.79
75.25
77.96
77.36
74.27
69.78
65.02
60.88
57.82
55.86
54.71
53.98
53.29
52.34
50.89
48.75
45.68
41.48
36.01
29.25
21.39
12.74
3.66
-5.72
-15.47
-25.91
-37.33
-49.55
-61.71
-72.08
-78.48
-78.82
-71.80
-57.28
-36.44
-11.33
15.65
42.26
66.79
88.08
105.45
118.53
127.22
131.73
132.57
130.57
126.69
121.82
116.65
111.62
106.95
102.74
99.04
95.85
93.13
90.64
88.00
84.72
80.29
74.35
66.80
57.85
47.94
37.61
27.37
17.46
7.81
-1.95
-12.32
-23.65
-35.76
-47.74
-58.01
-64.66
-65.96
-60.95
-49.73
-33.45
-13.90
6.89
27.13
45.42
60.71
72.30
79.75
83.03
82.59
79.43
74.94
70.54
67.31
65.69
65.47
65.92
66.28
65.98
64.90
63.22
61.20
58.90
56.11
52.40
47.38
40.95
33.32
25.01
16.58
8.46
0.79
-6.58
-14.01
-21.94
-30.79
-40.78
-51.76
-63.13
-73.68
-81.74
-85.52
-83.58
-75.37
-61.39
-43.15
-22.74
-2.26
16.53
32.48
44.98
53.86
59.29
61.68
61.63
59.95
57.50
55.10
53.35
52.58
52.73
53.45
54.14
54.23
53.28
51.17
48.08
44.32
40.15
35.65
30.64
24.81
17.98
10.24
2.00
-6.14
-13.67
-20.36
-26.39
-32.21
-38.37
-45.24
-52.91
-61.09
-69.12
-76.03
-80.58
-81.51
-77.84
-69.22
-56.12
-39.81
-22.07
-4.73
10.73
23.35
32.73
38.87
42.01
42.52
40.93
37.92
34.26
30.73
27.98
26.36
25.92
26.39
27.32
28.23
28.71
28.52
27.62
26.07
23.95
21.28
17.99
13.94
9.11
3.60
-2.32
-8.30
-14.07
-19.53
-24.77
-29.96
-35.22
-40.61
-46.15
-51.86
-57.79
-63.88
-69.72
-74.45
-76.86
-75.71
-70.22
-60.42
-47.20
-32.09
-16.82
-2.81
8.98
18.09
24.38
27.85
28.60
26.90
23.28
18.56
13.69
9.50
6.53
4.92
4.44
4.72
5.35
6.03
6.63
7.05
7.15
6.73
5.57
3.48
0.38
-3.60
-8.18
-12.96
-17.54
-21.64
-25.11
-28.03
-30.66
-33.37
-36.51
-40.30
-44.72
-49.44
-53.79
-56.87
-57.74
-55.59
-49.99
-40.99
-29.20
-15.65
-1.64
11.52
22.70
31.08
36.25
38.19
37.27
34.21
29.89
25.26
21.07
17.78
15.56
14.32
13.86
13.94
14.33
14.82
15.16
15.09
14.33
12.66
10.01
6.44
2.15
-2.53
-7.24
-11.64
-15.58
-19.09
-22.46
-26.07
-30.31
-35.35
-41.03
-46.79
-51.73
-54.71
-54.72
-51.07
-43.64
-32.94
-20.03
-6.28
6.85
18.11
26.63
31.98
34.16
33.55
30.72
26.37
21.22
15.97
11.20
7.35
4.67
3.19
2.73
2.91
3.34
3.67
3.68
3.24
2.27
0.68
-1.67
-4.86
-8.91
-13.68
-18.94
-24.39
-29.85
-35.27
-40.83
-46.83
-53.47
-60.59
-67.47
-72.87
-75.29
-73.48
-66.88
-55.87
-41.66
-25.92
-10.31
3.87
15.74
24.82
30.91
34.01
34.37
32.50
29.15
25.11
21.12
17.72
15.15
13.46
12.52
12.10
11.88
11.58
10.92
9.75
7.98
5.57
2.51
-1.21
-5.53
-10.31
-15.36
-20.50
-25.67
-31.01
-36.82
-43.49
-51.20
-59.74
-68.28
-75.44
-79.57
-79.21
-73.51
-62.66
-47.74
-30.53
-12.99
3.18
16.79
27.23
34.30
38.15
39.15
37.88
35.10
31.66
28.30
25.54
23.63
22.55
22.13
22.18
22.48
22.78
22.78
22.10
20.41
17.47
13.32
8.20
2.50
-3.37
-9.12
-14.70
-20.25
-26.10
-32.65
-40.17
-48.58
-57.34
-65.38
-71.24
-73.46
-70.93
-63.26
-50.90
-35.02
-17.27
0.65
17.25
31.36
42.24
49.50
53.16
53.66
51.75
48.43
44.69
41.29
38.69
37.02
36.21
36.08
36.42
36.96
37.33
37.09
35.86
33.41
29.73
25.06
19.69
13.88
7.82
1.60
-4.75
-11.26
-18.07
-25.39
-33.47
-42.33
-51.53
-60.05
-66.41
-68.99
-66.54
-58.60
-45.67
-29.08
-10.62
7.85
24.74
38.90
49.62
56.59
59.88
59.92
57.46
53.51
49.15
45.31
42.63
41.33
41.24
41.89
42.74
43.29
43.26
42.48
40.93
38.56
35.31
31.06
25.75
19.51
12.65
5.64
-1.08
-7.25
-12.96
-18.59
-24.70
-31.74
-39.85
-48.66
-57.20
-64.07
-67.72
-66.87
-60.83
-49.78
-34.75
-17.33
0.63
17.41
31.71
42.70
50.02
53.72
54.19
52.14
48.57
44.52
41.02
38.72
37.84
38.11
38.94
39.68
39.86
39.36
38.28
36.81
35.03
32.84
29.96
26.10
21.13
15.18
8.59
1.82
-4.70
-10.77
-16.43
-21.94
-27.70
-34.03
-41.08
-48.76
-56.67
-64.04
-69.85
-72.88
-71.94
-66.28
-55.77
-41.21
-24.11
-6.37
10.22
24.35
35.36
43.13
47.84
49.82
49.51
47.50
44.53
41.44
38.96
37.60
37.52
38.49
40.13
41.92
43.39
44.21
44.15
43.12
41.13
38.23
34.45
29.81
24.40
18.35
11.94
5.49
-0.69
-6.45
-11.81
-16.99
-22.29
-28.04
-34.46
-41.54
-49.05
-56.35
-62.51
-66.34
-66.68
-62.76
-54.43
-42.30
-27.59
-11.86
3.37
16.91
28.01
36.29
41.67
44.32
44.60
43.10
40.57
37.85
35.70
34.60
34.64
35.59
37.02
38.46
39.60
40.28
40.44
40.07
39.11
37.47
35.06
31.82
27.76
22.94
17.50
11.64
5.64
-0.25
-5.79
-10.96
-15.88
-20.89
-26.37
-32.63
-39.73
-47.33
-54.65
-60.55
-63.73
-63.06
-57.91
-48.36
-35.24
-19.97
-4.21
10.51
22.97
32.45
38.68
41.80
42.29
40.83
38.26
35.38
32.82
30.89
29.60
28.69
27.81
26.73
25.39
23.90
22.44
21.10
19.84
18.43
16.55
13.92
10.37
5.94
0.86
-4.54
-9.87
-14.86
-19.35
-23.40
-27.16
-30.88
-34.86
-39.43
-44.80
-50.93
-57.33
-62.96
-66.44
-66.39
-61.93
-53.03
-40.54
-25.92
-10.76
3.59
16.24
26.68
34.63
39.93
42.53
42.61
40.64
37.40
33.78
30.62
28.47
27.52
27.62
28.36
29.21
29.73
29.64
28.85
27.41
25.41
22.87
19.70
15.76
11.00
5.54
-0.36
-6.31
-11.96
-17.05
-21.54
-25.53
-29.24
-33.00
-37.12
-41.88
-47.36
-53.33
-59.16
-63.81
-66.04
-64.74
-59.29
-49.81
-37.22
-22.94
-8.57
4.57
15.58
24.03
29.80
32.92
33.59
32.16
29.31
25.93
22.97
21.08
20.48
20.88
21.72
22.43
22.68
22.42
21.78
20.92
19.90
18.62
16.92
14.61
11.56
7.73
3.20
-1.89
-7.24
-12.55
-17.53
-22.03
-26.11
-29.97
-33.90
-38.21
-43.12
-48.64
-54.48
-59.95
-63.97
-65.31
-62.88
-56.12
-45.30
-31.46
-16.20
-1.27
11.93
22.49
30.07
34.74
36.77
36.57
34.64
31.62
28.28
25.35
23.36
22.46
22.45
22.87
23.31
23.51
23.47
23.30
23.05
22.56
21.52
19.55
16.41
12.14
7.02
1.52
-3.91
-8.92
-13.43
-17.60
-21.77
-26.33
-31.53
-37.35
-43.46
-49.20
-53.67
-55.87
-54.90
-50.18
-41.67
-30.00
-16.34
-2.19
11.07
22.45
31.46
38.00
42.12
43.95
43.57
41.26
37.56
33.25
29.20
26.04
24.06
23.14
22.91
22.97
23.06
23.02
22.78
22.23
21.14
19.27
16.43
12.57
7.86
2.61
-2.78
-7.97
-12.77
-17.23
-21.62
-26.30
-31.64
-37.82
-44.63
-51.44
-57.16
-60.49
-60.26
-55.81
-47.28
-35.54
-22.05
-8.42
3.92
14.00
21.33
25.83
27.68
27.27
25.09
21.74
17.89
14.21
11.24
9.28
8.37
8.31
8.78
9.46
10.13
10.68
10.98
10.85
10.04
8.27
5.40
1.50
-3.13
-8.12
-13.10
-17.92
-22.64
-27.47
-32.71
-38.50
-44.66
-50.65
-55.53
-58.15
-57.44
-52.73
-44.02
-32.05
-18.14
-3.89
9.24
20.16
28.28
33.43
35.75
35.56
33.32
29.59
25.06
20.45
16.40
13.35
11.46
10.63
10.54
10.76
10.84
10.37
9.08
6.84
3.68
-0.23
-4.68
-9.48
-14.53
-19.81
-25.39
-31.30
-37.64
-44.45
-51.69
-59.17
-66.38
-72.47
-76.27
-76.58
-72.48
-63.73
-50.88
-35.23
-18.43
-2.08
12.63
24.96
34.56
41.34
45.26
46.49
45.37
42.55
38.84
35.08
31.88
29.55
28.12
27.39
27.09
26.89
26.49
25.57
23.83
21.07
17.22
12.37
6.72
0.50
-6.09
-12.93
-19.99
-27.30
-34.91
-42.93
-51.36
-60.02
-68.36
-75.40
-79.75
-80.03
-75.22
-65.18
-50.71
-33.44
-15.29
1.97
17.12
29.55
39.06
45.71
49.65
51.09
50.40
48.17
45.14
42.07
39.54
37.83
36.88
36.40
36.02
35.45
34.49
33.03
30.98
28.20
24.53
19.83
14.14
7.68
0.84
-6.04
-12.72
-19.23
-25.77
-32.68
-40.25
-48.62
-57.63
-66.72
-74.87
-80.73
-82.81
-79.97
-71.78
-58.78
-42.34
-24.34
-6.58
9.56
23.34
34.50
43.02
48.87
52.05
52.66
51.14
48.32
45.27
43.00
42.14
42.73
44.28
46.05
47.35
47.74
47.18
45.78
43.72
41.06
37.67
33.40
28.14
21.95
15.06
7.86
0.74
-5.96
-12.11
-17.81
-23.33
-29.05
-35.32
-42.37
-50.22
-58.55
-66.68
-73.52
-77.76
-78.05
-73.48
-63.86
-49.88
-32.95
-14.84
2.79
18.68
32.05
42.49
49.85
54.17
55.75
55.19
53.33
51.10
49.25
48.19
47.97
48.34
48.95
49.51
49.83
49.81
49.35
48.34
46.62
44.07
40.66
36.41
31.48
26.04
20.29
14.40
8.52
2.76
-2.80
-8.10
-13.11
-17.84
-22.32
-26.62
-30.95
-35.61
-40.95
-47.26
-54.50
-62.15
-69.15
-74.03
-75.31
-71.90
-63.47
-50.63
-34.76
-17.66
-1.14
13.38
24.98
33.32
38.45
40.72
40.65
38.89
36.21
33.45
31.33
30.37
30.71
32.07
33.83
35.28
35.86
35.33
33.81
31.65
29.16
26.45
23.40
19.73
15.24
9.95
4.13
-1.78
-7.33
-12.25
-16.48
-20.17
-23.62
-27.20
-31.26
-36.07
-41.74
-48.07
-54.44
-59.86
-63.01
-62.67
-57.99
-48.93
-36.23
-21.30
-5.81
8.74
21.30
31.34
38.70
43.44
45.70
45.78
44.15
41.49
38.65
36.40
35.26
35.37
36.53
38.25
39.94
41.06
41.22
40.26
38.22
35.28
31.66
27.49
22.75
17.38
11.35
4.75
-2.13
-8.87
-15.09
-20.58
-25.38
-29.70
-33.91
-38.39
-43.47
-49.37
-56.03
-62.99
-69.28
-73.55
-74.34
-70.60
-62.02
-49.27
-33.77
-17.26
-1.41
12.59
24.08
32.77
38.59
41.62
42.08
40.45
37.44
33.95
30.85
28.75
27.93
28.23
29.23
30.36
31.13
31.22
30.57
29.26
27.41
25.07
22.18
18.67
14.47
9.68
4.47
-0.87
-6.11
-11.11
-15.84
-20.32
-24.65
-28.90
-33.23
-37.91
-43.25
-49.45
-56.39
-63.47
-69.60
-73.39
-73.53
-69.18
-60.25
-47.48
-32.23
-16.10
-0.60
13.14
24.44
33.00
38.81
42.05
43.09
42.44
40.76
38.79
37.12
36.19
36.08
36.66
37.60
38.57
39.25
39.38
38.83
37.55
35.59
33.02
29.90
26.19
21.80
16.67
10.92
4.84
-1.13
-6.64
-11.60
-16.12
-20.55
-25.23
-30.38
-36.06
-42.16
-48.42
-54.44
-59.55
-62.89
-63.50
-60.60
-53.89
-43.68
-30.93
-16.94
-3.12
9.37
19.70
27.39
32.31
34.54
34.38
32.37
29.20
25.61
22.30
19.79
18.37
18.05
18.61
19.67
20.79
21.59
21.79
21.32
20.18
18.41
16.00
12.90
9.06
4.59
-0.24
-5.05
-9.51
-13.47
-17.08
-20.65
-24.56
-29.08
-34.30
-40.03
-45.84
-51.01
-54.64
-55.75
-53.56
-47.69
-38.39
-26.45
-13.10
0.33
12.70
23.16
31.22
36.67
39.51
39.92
38.32
35.27
31.48
27.66
24.41
22.11
20.87
20.54
20.81
21.32
21.74
21.82
21.41
20.44
18.81
16.49
13.43
9.73
5.60
1.34
-2.74
-6.47
-9.85
-13.08
-16.48
-20.35
-24.85
-29.93
-35.21
-39.94
-43.11
-43.60
-40.50
-33.42
-22.66
-9.20
5.55
20.17
33.49
44.77
53.68
60.15
64.25
66.17
66.20
64.80
62.57
60.14
58.05
56.62
55.86
55.55
55.31
54.73
53.49
51.35
48.15
43.75
37.99
30.78
22.14
12.27
1.62
-9.30
-19.95
-29.95
-39.12
-47.49
-55.22
-62.62
-70.03
-77.64
-85.34
-92.49
-97.97
-100.40
-98.56
-91.85
-80.61
-66.00
-49.76
-33.70
-19.30
-7.52
1.19
6.78
9.48
9.79
8.36
5.98
3.42
1.35
0.10
-0.25
0.14
0.98
2.02
3.02
3.85
4.38
4.43
3.82
2.33
-0.19
-3.79
-8.31
-13.45
-18.83
-24.09
-28.99
-33.56
-38.03
-42.81
-48.30
-54.64
-61.62
-68.50
-74.13
-77.17
-76.41
-71.20
-61.61
-48.54
-33.40
-17.84
-3.29
9.23
19.20
26.46
31.09
33.30
33.42
31.89
29.29
26.27
23.40
21.14
19.68
18.96
18.79
18.90
19.04
19.04
18.79
18.19
17.10
15.34
12.72
9.08
4.49
-0.78
-6.31
-11.74
-16.85
-21.71
-26.60
-31.89
-37.80
-44.33
-51.06
-57.23
-61.75
-63.43
-61.31
-54.93
-44.51
-31.03
-16.01
-1.11
12.16
22.76
30.17
34.40
35.80
34.99
32.69
29.64
26.49
23.74
21.68
20.45
19.98
20.12
20.61
21.19
21.53
21.38
20.48
18.65
15.82
12.04
7.49
2.44
-2.78
-7.97
-13.05
-18.13
-23.40
-29.08
-35.27
-41.88
-48.58
-54.73
-59.42
-61.57
-60.19
-54.65
-44.99
-32.02
-17.15
-2.09
11.59
22.73
30.73
35.52
37.38
36.80
34.38
30.77
26.67
22.74
19.53
17.41
16.48
16.61
17.46
18.56
19.43
19.62
18.84
16.89
13.71
9.42
4.31
-1.25
-6.84
-12.17
-17.18
-22.14
-27.43
-33.52
-40.60
-48.48
-56.40
-63.14
-67.22
-67.30
-62.51
-52.81
-39.03
-22.73
-5.81
9.92
23.17
33.24
39.99
43.64
44.58
43.28
40.30
36.31
32.00
28.03
24.86
22.69
21.46
20.93
20.75
20.59
20.14
19.17
17.46
14.88
11.36
6.90
1.60
-4.39
-10.93
-17.82
-24.96
-32.34
-40.03
-48.12
-56.56
-64.88
-72.16
-77.09
-78.30
-74.78
-66.25
-53.35
-37.40
-20.12
-3.13
12.33
25.46
35.86
43.32
47.81
49.47
48.68
46.11
42.63
39.13
36.33
34.58
33.82
33.70
33.72
33.43
32.55
31.00
28.78
25.91
22.36
18.07
13.02
7.31
1.12
-5.27
-11.67
-18.05
-24.61
-31.67
-39.48
-48.03
-56.72
-64.40
-69.55
-70.65
-66.75
-57.71
-44.34
-28.11
-10.70
6.37
21.91
35.12
45.42
52.45
56.09
56.63
54.73
51.43
47.82
44.75
42.72
41.78
41.67
42.04
42.51
42.82
42.76
42.19
40.98
38.99
36.04
32.01
26.91
20.94
14.46
7.92
1.63
-4.34
-10.22
-16.39
-23.17
-30.61
-38.42
-45.94
-52.33
-56.60
-57.81
-55.20
-48.37
-37.45
-23.23
-7.07
9.39
24.48
36.90
45.89
51.22
53.17
52.33
49.48
45.49
41.22
37.40
34.54
32.76
31.83
31.31
30.69
29.61
27.99
25.93
23.59
21.06
18.24
14.95
11.01
6.41
1.27
-4.15
-9.63
-15.02
-20.33
-25.70
-31.37
-37.53
-44.19
-51.00
-57.23
-61.80
-63.49
-61.30
-54.72
-43.96
-29.95
-14.11
1.95
16.71
29.00
38.13
43.80
46.18
45.73
43.17
39.37
35.20
31.40
28.43
26.46
25.40
25.00
24.89
24.73
24.16
22.94
20.87
17.89
14.05
9.51
4.47
-0.87
-6.38
-12.02
-17.86
-23.98
-30.52
-37.62
-45.37
-53.68
-62.17
-69.97
-75.81
-78.24
-76.02
-68.59
-56.32
-40.44
-22.72
-5.01
11.23
25.04
35.93
43.75
48.54
50.57
50.32
48.53
46.07
43.72
42.00
41.03
40.62
40.39
40.06
39.49
38.74
37.88
36.85
35.39
33.09
29.58
24.75
18.83
12.35
5.95
0.10
-5.03
-9.62
-14.13
-19.08
-24.93
-31.87
-39.66
-47.57
-54.37
-58.52
-58.49
-53.27
-42.69
-27.55
-9.44
9.73
28.16
44.55
58.14
68.61
75.96
80.36
82.17
81.97
80.48
78.53
76.84
75.89
75.85
76.62
77.88
79.32
80.65
81.71
82.44
82.79
82.74
82.18
80.92
78.81
75.78
71.93
67.52
62.90
58.32
53.87
49.43
44.67
39.10
32.25
23.76
13.66
2.47
-8.67
-18.28
-24.86
-27.43
-25.91
-21.08
-14.31
-7.06
-0.41
5.01
8.96
11.27
11.74
10.18
6.60
1.44
-4.47
-10.13
-14.68
-17.76
-19.53
-20.56
-21.47
-22.72
-24.42
-26.46
-28.64
-30.88
-33.23
-35.90
-39.10
-42.90
-47.23
-51.88
-56.55
-61.01
-65.14
-68.93
-72.53
-76.17
-80.16
-84.79
-90.16
-96.00
-101.54
-105.57
-106.67
-103.58
-95.72
-83.36
-67.65
-50.30
-33.10
-17.58
-4.74
4.96
11.43
14.88
15.72
14.49
11.96
8.92
6.12
4.08
3.04
2.89
3.34
4.01
4.56
4.73
4.39
3.47
1.92
-0.32
-3.31
-7.09
-11.57
-16.60
-21.92
-27.26
-32.45
-37.50
-42.66
-48.28
-54.69
-61.95
-69.66
-76.85
-82.10
-83.92
-81.08
-73.18
-60.73
-45.09
-28.07
-11.44
3.42
15.66
24.88
30.97
34.06
34.50
32.88
29.98
26.65
23.59
21.24
19.72
18.95
18.69
18.67
18.64
18.35
17.60
16.16
13.87
10.65
6.56
1.75
-3.52
-8.95
-14.41
-19.88
-25.56
-31.71
-38.58
-46.26
-54.61
-63.13
-70.99
-77.02
-79.89
-78.41
-71.90
-60.51
-45.23
-27.78
-10.05
6.35
20.30
31.28
39.16
44.04
46.16
45.94
44.01
41.13
38.04
35.29
33.11
31.50
30.33
29.50
29.01
28.76
28.60
28.19
27.09
24.94
21.56
17.03
11.59
5.56
-0.74
-7.06
-13.24
-19.26
-25.23
-31.42
-38.22
-45.90
-54.39
-63.02
-70.43
-74.85
-74.59
-68.62
-57.01
-41.00
-22.57
-3.88
13.29
27.88
39.42
47.87
53.34
55.97
56.03
54.02
50.72
47.03
43.83
41.66
40.67
40.66
41.20
41.87
42.35
42.49
42.15
41.22
39.47
36.59
32.38
26.78
20.01
12.52
4.83
-2.66
-9.81
-16.80
-24.01
-31.85
-40.57
-50.00
-59.51
-67.95
-73.80
-75.56
-72.12
-63.17
-49.43
-32.50
-14.48
2.59
17.16
28.41
36.18
40.74
42.55
42.16
40.13
37.09
33.74
30.68
28.34
26.91
26.31
26.31
26.66
27.11
27.46
27.41
26.65
24.84
21.78
17.51
12.30
6.57
0.66
-5.27
-11.27
-17.59
-24.48
-32.11
-40.51
-49.41
-58.19
-65.83
-70.93
-72.05
-68.09
-58.75
-44.70
-27.57
-9.46
7.52
21.79
32.47
39.39
42.85
43.41
41.67
38.24
33.76
28.85
24.13
20.12
17.13
15.24
14.30
13.97
13.81
13.38
12.31
10.29
7.18
3.00
-2.10
-7.87
-14.01
-20.31
-26.65
-33.06
-39.72
-46.87
-54.74
-63.42
-72.64
-81.65
-89.09
-93.32
-92.69
-86.22
-73.92
-56.92
-37.19
-16.97
1.80
17.81
30.44
39.55
45.29
47.91
47.85
45.68
42.17
38.11
34.24
31.01
28.67
27.19
26.38
25.93
25.47
24.67
23.28
21.17
18.30
14.65
10.17
4.82
-1.38
-8.24
-15.42
-22.54
-29.43
-36.21
-43.31
-51.20
-60.03
-69.31
-77.85
-83.92
-85.75
-82.00
-72.30
-57.27
-38.47
-17.95
2.24
20.36
35.25
46.31
53.45
56.94
57.34
55.41
52.09
48.34
45.04
42.81
41.89
42.12
43.02
44.02
44.63
44.57
43.80
42.35
40.27
37.46
33.77
29.14
23.67
17.66
11.44
5.27
-0.90
-7.34
-14.45
-22.53
-31.58
-41.09
-50.05
-57.07
-60.64
-59.51
-53.09
-41.62
-26.22
-8.65
9.12
25.26
38.43
47.88
53.42
55.29
54.03
50.40
45.31
39.73
34.57
30.49
27.81
26.43
25.92
25.75
25.46
24.75
23.52
21.71
19.26
16.07
12.04
7.20
1.69
-4.24
-10.42
-16.76
-23.39
-30.51
-38.33
-46.83
-55.63
-63.94
-70.56
-74.13
-73.41
-67.68
-56.99
-42.21
-24.87
-6.76
10.39
25.20
36.75
44.55
48.58
49.18
47.01
42.98
38.09
33.21
28.98
25.74
23.49
22.10
21.33
20.91
20.52
19.82
18.45
16.08
12.57
7.95
2.47
-3.59
-9.99
-16.65
-23.62
-31.11
-39.30
-48.30
-58.02
-67.97
-77.20
-84.28
-87.56
-85.65
-77.86
-64.53
-46.98
-27.12
-6.99
11.69
27.76
40.51
49.62
55.08
57.25
56.77
54.56
51.63
48.80
46.62
45.30
44.81
44.96
45.52
46.13
46.39
45.89
44.24
41.30
37.15
32.06
26.39
20.46
14.45
8.42
2.33
-3.93
-10.53
-17.68
-25.54
-34.07
-42.75
-50.58
-56.04
-57.56
-53.90
-44.63
-30.33
-12.43
7.15
26.45
43.87
58.36
69.37
76.77
80.75
81.68
80.15
76.88
72.63
68.13
63.91
60.31
57.42
55.15
53.34
51.79
50.30
48.61
46.46
43.60
39.82
35.05
29.36
22.94
16.08
9.06
2.04
-4.93
-12.01
-19.53
-27.83
-37.11
-47.12
-57.06
-65.55
-70.95
-71.79
-67.28
-57.62
-43.99
-28.20
-12.17
2.49
14.70
23.91
29.90
32.70
32.55
29.94
25.67
20.74
16.11
12.45
10.04
8.79
8.39
8.47
8.73
8.88
8.64
7.71
5.82
2.82
-1.23
-6.10
-11.41
-16.81
-22.10
-27.29
-32.55
-38.13
-44.22
-50.91
-58.07
-65.28
-71.82
-76.66
-78.63
-76.66
-70.15
-59.27
-44.97
-28.83
-12.64
2.02
14.05
22.84
28.30
30.62
30.26
27.87
24.27
20.32
16.75
14.08
12.51
11.97
12.16
12.69
13.13
13.10
12.26
10.45
7.68
4.10
-0.04
-4.46
-9.01
-13.68
-18.60
-23.99
-30.03
-36.82
-44.39
-52.54
-60.86
-68.56
-74.45
-77.11
-75.20
-67.95
-55.52
-39.09
-20.56
-2.05
14.65
28.42
38.79
45.79
49.65
50.76
49.59
46.77
43.01
39.02
35.35
32.31
29.96
28.19
26.79
25.57
24.34
22.89
21.04
18.59
15.35
11.23
6.21
0.38
-6.08
-12.96
-20.06
-27.30
-34.69
-42.39
-50.55
-59.13
-67.71
-75.35
-80.70
-82.26
-78.83
-69.91
-55.90
-38.11
-18.36
1.37
19.39
34.47
45.94
53.55
57.48
58.15
56.24
52.64
48.27
43.99
40.40
37.77
36.08
35.07
34.44
33.91
33.25
32.21
30.55
27.99
24.38
19.66
13.96
7.52
0.64
-6.38
-13.29
-19.87
-26.07
-32.00
-37.98
-44.41
-51.45
-58.81
-65.51
-70.08
-70.84
-66.60
-57.00
-42.75
-25.42
-6.98
10.68
26.15
38.58
47.63
53.26
55.67
55.25
52.65
48.81
44.72
41.27
38.91
37.65
37.10
36.75
36.20
35.30
34.13
32.83
31.45
29.82
27.63
24.48
20.18
14.72
8.41
1.71
-4.95
-11.34
-17.50
-23.71
-30.36
-37.69
-45.65
-53.75
-61.09
-66.47
-68.63
-66.54
-59.76
-48.59
-34.11
-17.91
-1.72
12.88
24.78
33.38
38.52
40.42
39.53
36.54
32.26
27.56
23.27
19.97
17.99
17.29
17.57
18.35
19.10
19.38
18.87
17.41
14.95
11.56
7.35
2.53
-2.64
-7.94
-13.20
-18.37
-23.54
-28.88
-34.63
-40.96
-47.98
-55.53
-63.09
-69.65
-73.88
-74.32
-69.89
-60.26
-46.04
-28.73
-10.26
7.43
22.77
34.80
43.14
47.89
49.49
48.64
46.13
42.74
39.18
35.98
33.45
31.72
30.73
30.27
30.03
29.69
28.96
27.62
25.58
22.71
18.97
14.36
8.93
2.92
-3.35
-9.53
-15.40
-20.91
-26.30
-31.98
-38.33
-45.57
-53.42
-61.09
-67.27
-70.43
-69.25
-63.01
-51.90
-36.99
-19.97
-2.59
13.64
27.72
39.07
47.39
52.56
54.62
53.84
50.85
46.57
42.01
38.07
35.23
33.53
32.62
32.01
31.31
30.30
28.95
27.26
25.13
22.37
18.75
14.14
8.65
2.57
-3.67
-9.74
-15.55
-21.24
-27.16
-33.74
-41.24
-49.55
-58.15
-65.95
-71.50
-73.29
-70.18
-61.74
-48.55
-31.94
-13.82
3.88
19.58
32.26
41.44
47.19
49.88
50.09
48.52
45.89
42.87
40.08
37.94
36.68
36.25
36.39
36.72
36.86
36.58
35.77
34.42
32.51
29.92
26.54
22.31
17.31
11.82
6.15
0.55
-4.89
-10.26
-15.72
-21.51
-27.82
-34.79
-42.40
-50.31
-57.82
-63.82
-67.03
-66.38
-61.29
-51.97
-39.33
-24.76
-9.80
4.20
16.26
25.71
32.26
35.84
36.67
35.21
32.17
28.40
24.70
21.68
19.64
18.55
18.12
17.94
17.64
16.96
15.80
14.16
12.12
9.69
6.87
3.58
-0.23
-4.55
-9.27
-14.24
-19.32
-24.44
-29.65
-35.12
-41.06
-47.57
-54.44
-61.10
-66.53
-69.46
-68.69
-63.56
-54.15
-41.43
-26.89
-12.20
1.28
12.61
21.28
27.04
29.81
29.72
27.14
22.81
17.71
12.82
8.92
6.38
5.22
5.20
5.99
7.25
8.61
9.66
9.98
9.22
7.21
4.00
-0.12
-4.78
-9.66
-14.58
-19.55
-24.70
-30.25
-36.37
-43.18
-50.58
-58.22
-65.34
-70.84
-73.38
-71.71
-65.15
-53.81
-38.70
-21.48
-4.05
11.87
25.10
35.01
41.48
44.72
45.14
43.33
39.97
35.87
31.77
28.28
25.74
24.23
23.58
23.50
23.62
23.55
22.94
21.48
18.99
15.44
10.95
5.77
0.18
-5.61
-11.49
-17.52
-23.82
-30.63
-38.15
-46.46
-55.37
-64.25
-72.03
-77.29
-78.63
-75.03
-66.27
-52.95
-36.45
-18.49
-0.78
15.25
28.61
38.73
45.42
48.81
49.36
47.75
44.80
41.30
37.92
35.08
32.98
31.65
30.98
30.78
30.74
30.55
29.83
28.24
25.52
21.58
16.48
10.46
3.86
-2.92
-9.54
-15.82
-21.74
-27.51
-33.54
-40.17
-47.56
-55.29
-62.30
-67.05
-67.90
-63.65
-54.07
-39.97
-23.02
-5.21
11.64
26.27
37.96
46.43
51.62
53.70
53.06
50.39
46.58
42.51
38.92
36.16
34.27
33.04
32.20
31.50
30.76
29.90
28.82
27.44
25.56
22.97
19.42
14.77
9.03
2.47
-4.53
-11.60
-18.51
-25.29
-32.09
-39.11
-46.32
-53.30
-59.28
-63.20
-63.99
-60.83
-53.46
-42.30
-28.45
-13.51
0.85
13.15
22.40
28.22
30.72
30.38
27.86
23.93
19.35
14.91
11.29
8.98
8.20
8.83
10.42
12.37
14.04
14.96
14.88
13.79
11.84
9.22
6.08
2.45
-1.70
-6.47
-11.89
-17.95
-24.57
-31.62
-38.92
-46.06
-52.37
-56.86
-58.37
-55.84
-48.74
-37.26
-22.38
-5.66
11.17
26.53
39.24
48.59
54.32
56.55
55.77
52.74
48.39
43.71
39.50
36.26
34.15
33.02
32.54
32.32
31.95
31.08
29.40
26.75
23.08
18.53
13.35
7.81
2.17
-3.44
-9.04
-14.78
-20.93
-27.83
-35.68
-44.44
-53.53
-61.81
-67.70
-69.59
-66.30
-57.53
-44.00
-27.24
-9.18
8.36
23.99
36.84
46.57
53.13
56.72
57.71
56.64
54.12
50.84
47.45
44.43
42.15
40.76
40.26
40.49
41.14
41.81
42.05
41.45
39.71
36.70
32.52
27.44
21.83
16.03
10.24
4.52
-1.25
-7.29
-13.83
-21.09
-29.10
-37.58
-45.83
-52.66
-56.65
-56.51
-51.47
-41.61
-27.91
-12.00
4.33
19.54
32.57
42.90
50.37
55.00
56.99
56.59
54.29
50.76
46.77
43.07
40.19
38.31
37.30
36.78
36.34
35.65
34.59
33.12
31.29
29.05
26.31
22.86
18.55
13.34
7.41
1.13
-5.06
-10.82
-16.04
-20.89
-25.74
-31.03
-37.04
-43.79
-50.98
-57.97
-63.90
-67.71
-68.41
-65.25
-58.03
-47.17
-33.70
-18.99
-4.49
8.60
19.42
27.43
32.38
34.28
33.45
30.51
26.42
22.21
18.83
16.81
16.19
16.56
17.29
17.77
17.63
16.80
15.39
13.60
11.47
8.90
5.69
1.72
-3.03
-8.36
-13.97
-19.51
-24.70
-29.40
-33.61
-37.54
-41.50
-45.80
-50.63
-55.78
-60.59
-63.98
-64.68
-61.65
-54.40
-43.24
-29.16
-13.66
1.73
15.72
27.46
36.54
42.88
46.60
47.97
47.43
45.56
43.06
40.58
38.64
37.45
36.91
36.72
36.47
35.86
34.74
33.15
31.17
28.84
26.05
22.58
18.22
12.87
6.72
0.17
-6.28
-12.24
-17.61
-22.64
-27.81
-33.64
-40.41
-48.05
-55.99
-63.29
-68.74
-71.14
-69.52
-63.46
-53.22
-39.72
-24.37
-8.71
5.87
18.36
28.18
35.13
39.26
40.84
40.30
38.21
35.27
32.19
29.51
27.56
26.38
25.75
25.37
24.96
24.35
23.49
22.40
21.05
19.34
17.05
13.95
9.91
4.98
-0.60
-6.42
-12.13
-17.48
-22.46
-27.26
-32.23
-37.77
-44.11
-51.17
-58.44
-64.90
-69.27
-70.25
-66.95
-59.17
-47.50
-33.15
-17.63
-2.38
11.50
23.28
32.53
38.99
42.57
43.40
41.94
39.00
35.61
32.71
30.89
30.26
30.43
30.83
30.91
30.37
29.23
27.68
25.93
24.07
21.98
19.45
16.24
12.23
7.50
2.28
-3.07
-8.25
-13.11
-17.68
-22.23
-27.11
-32.66
-39.02
-46.03
-53.11
-59.34
-63.55
-64.62
-61.77
-54.81
-44.25
-31.21
-17.12
-3.41
8.81
18.85
26.33
31.13
33.23
32.79
30.16
26.06
21.41
17.19
14.21
12.86
13.06
14.31
15.98
17.40
18.14
17.95
16.78
14.68
11.72
8.01
3.67
-1.13
-6.10
-10.96
-15.46
-19.46
-23.04
-26.49
-30.20
-34.57
-39.82
-45.77
-51.78
-56.80
-59.60
-59.10
-54.70
-46.50
-35.25
-22.15
-8.58
4.25
15.38
24.18
30.24
33.45
33.90
32.05
28.61
24.47
20.47
17.17
14.84
13.45
12.78
12.57
12.56
12.49
12.12
11.21
9.58
7.18
4.08
0.45
-3.52
-7.68
-11.93
-16.27
-20.78
-25.57
-30.80
-36.65
-43.22
-50.40
-57.70
-64.27
-68.93
-70.45
-67.95
-61.13
-50.45
-36.92
-21.92
-6.78
7.38
19.68
29.49
36.36
40.12
40.96
39.46
36.46
32.88
29.44
26.57
24.40
22.90
21.99
21.58
21.51
21.55
21.38
20.64
19.06
16.55
13.17
9.10
4.54
-0.29
-5.27
-10.28
-15.30
-20.38
-25.69
-31.48
-37.87
-44.74
-51.49
-57.04
-60.04
-59.19
-53.72
-43.61
-29.69
-13.40
3.57
19.66
33.62
44.67
52.49
57.12
58.89
58.33
56.04
52.64
48.66
44.52
40.56
37.01
33.98
31.48
29.38
27.44
25.37
22.90
19.84
16.11
11.74
6.81
1.45
-4.27
-10.32
-16.69
-23.40
-30.46
-37.88
-45.67
-53.74
-61.76
-69.10
-74.72
-77.39
-75.98
-69.90
-59.37
-45.42
-29.68
-13.89
0.44
12.36
21.39
27.44
30.65
31.28
29.72
26.54
22.47
18.38
15.01
12.86
12.02
12.20
12.88
13.52
13.72
13.27
12.14
10.36
7.96
4.89
1.14
-3.22
-8.07
-13.19
-18.41
-23.69
-29.16
-35.00
-41.27
-47.72
-53.63
-57.93
-59.42
-57.08
-50.49
-39.99
-26.65
-12.06
2.12
14.43
23.95
30.32
33.70
34.56
33.53
31.21
28.16
24.84
21.61
18.79
16.62
15.22
14.56
14.45
14.48
14.21
13.25
11.41
8.71
5.35
1.51
-2.74
-7.47
-12.83
-18.92
-25.73
-33.14
-40.92
-48.73
-55.99
-61.85
-65.20
-64.93
-60.24
-50.97
-37.74
-21.84
-4.97
11.12
24.99
35.62
42.53
45.75
45.73
43.21
39.13
34.45
30.03
26.49
24.20
23.16
23.09
23.53
23.88
23.65
22.49
20.32
17.28
13.64
9.64
5.38
0.79
-4.34
-10.25
-17.09
-24.91
-33.61
-42.83
-51.94
-59.94
-65.56
-67.42
-64.46
-56.29
-43.45
-27.31
-9.72
7.44
22.72
35.23
44.62
50.90
54.25
54.96
53.41
50.15
45.87
41.36
37.32
34.24
32.28
31.28
30.81
30.39
29.57
28.08
25.83
22.85
19.25
15.09
10.38
5.08
-0.86
-7.47
-14.72
-22.55
-30.93
-39.75
-48.71
-57.16
-63.99
-67.79
-67.22
-61.46
-50.60
-35.69
-18.47
-0.85
15.55
29.66
40.96
49.31
54.73
57.34
57.43
55.54
52.41
48.88
45.70
43.30
41.75
40.84
40.25
39.68
38.99
38.10
36.94
35.28
32.79
29.11
24.09
17.88
10.93
3.81
-3.02
-9.41
-15.52
-21.72
-28.41
-35.76
-43.57
-51.29
-58.02
-62.65
-64.07
-61.44
-54.44
-43.39
-29.23
-13.35
2.75
17.71
30.48
40.38
47.11
50.69
51.42
49.90
46.94
43.45
40.24
37.89
36.58
36.17
36.29
36.53
36.59
36.36
35.81
34.93
33.59
31.58
28.63
24.59
19.46
13.49
7.04
0.53
-5.74
-11.65
-17.26
-22.84
-28.70
-35.07
-41.89
-48.72
-54.68
-58.64
-59.39
-56.12
-48.56
-37.22
-23.24
-8.17
6.40
19.11
29.02
35.74
39.28
39.96
38.37
35.24
31.40
27.67
24.70
22.84
22.08
22.10
22.44
22.69
22.58
22.05
21.11
19.79
18.00
15.61
12.49
8.65
4.22
-0.54
-5.38
-10.16
-14.86
-19.58
-24.49
-29.76
-35.51
-41.66
-47.89
-53.52
-57.53
-58.80
-56.39
-49.92
-39.71
-26.83
-12.71
1.13
13.52
23.74
31.45
36.58
39.20
39.51
37.91
35.02
31.65
28.53
26.18
24.75
24.05
23.75
23.53
23.14
22.51
21.57
20.26
18.43
15.92
12.57
8.31
3.19
-2.63
-8.81
-15.03
-20.96
-26.45
-31.60
-36.76
-42.36
-48.72
-55.83
-63.18
-69.80
-74.36
-75.57
-72.48
-64.80
-52.99
-38.15
-21.78
-5.39
9.73
22.69
32.99
40.39
44.93
46.78
46.36
44.26
41.28
38.25
35.87
34.48
34.04
34.13
34.20
33.81
32.79
31.22
29.28
27.08
24.47
21.22
17.07
12.01
6.25
0.14
-5.95
-11.83
-17.43
-22.81
-28.07
-33.36
-38.91
-44.98
-51.68
-58.82
-65.68
-71.04
-73.46
-71.69
-65.13
-54.07
-39.64
-23.45
-7.14
7.93
20.90
31.31
38.98
43.88
46.14
46.08
44.29
41.59
38.85
36.74
35.57
35.22
35.26
35.15
34.50
33.16
31.26
29.10
26.96
24.92
22.83
20.32
17.05
12.80
7.65
1.95
-3.84
-9.30
-14.26
-18.76
-23.09
-27.63
-32.70
-38.55
-45.17
-52.22
-58.95
-64.17
-66.50
-64.75
-58.32
-47.56
-33.69
-18.45
-3.56
9.64
20.45
28.63
34.17
37.12
37.59
35.89
32.65
28.73
25.03
22.17
20.37
19.45
19.01
18.71
18.34
17.92
17.49
17.02
16.30
15.02
12.83
9.52
5.14
-0.04
-5.55
-10.92
-15.81
-20.10
-24.01
-27.88
-32.09
-36.90
-42.27
-47.86
-52.99
-56.78
-58.17
-56.28
-50.57
-41.10
-28.66
-14.55
-0.29
12.73
23.59
31.85
37.41
40.43
41.14
39.86
37.09
33.48
29.77
26.60
24.33
23.00
22.42
22.23
22.07
21.72
21.03
19.95
18.42
16.33
13.52
9.86
5.34
0.13
-5.39
-10.86
-15.99
-20.75
-25.34
-30.16
-35.59
-41.84
-48.78
-55.94
-62.42
-67.06
-68.65
-66.24
-59.46
-48.68
-34.94
-19.71
-4.54
9.31
20.93
29.83
35.82
38.97
39.56
38.06
35.13
31.48
27.80
24.63
22.29
20.89
20.31
20.31
20.54
20.63
20.22
19.06
17.01
14.10
10.44
6.21
1.58
-3.32
-8.39
-13.53
-18.67
-23.78
-28.98
-34.53
-40.72
-47.73
-55.32
-62.65
-68.42
-71.12
-69.52
-63.06
-52.07
-37.68
-21.44
-5.06
10.03
22.77
32.50
38.96
42.24
42.77
41.24
38.50
35.32
32.33
29.84
27.95
26.59
25.64
24.97
24.48
24.08
23.67
23.11
22.23
20.80
18.64
15.59
11.62
6.83
1.47
-4.15
-9.77
-15.26
-20.66
-26.15
-32.01
-38.43
-45.32
-52.18
-58.04
-61.63
-61.67
-57.36
-48.60
-36.15
-21.42
-6.08
8.32
20.61
30.05
36.35
39.55
39.98
38.25
35.12
31.39
27.77
24.75
22.56
21.20
20.50
20.22
20.11
19.93
19.51
18.71
17.43
15.61
13.19
10.10
6.34
1.93
-2.96
-8.09
-13.22
-18.21
-23.14
-28.28
-33.94
-40.25
-46.94
-53.20
-57.81
-59.44
-57.09
-50.38
-39.77
-26.47
-12.12
1.61
13.34
22.23
27.95
30.63
30.64
28.55
24.99
20.68
16.30
12.48
9.67
8.05
7.56
7.88
8.60
9.27
9.51
9.05
7.75
5.57
2.60
-1.01
-5.09
-9.40
-13.81
-18.24
-22.79
-27.73
-33.41
-40.11
-47.74
-55.68
-62.70
-67.26
-67.84
-63.52
-54.23
-40.88
-25.02
-8.51
6.97
20.18
30.33
37.09
40.45
40.67
38.30
34.11
29.08
24.13
20.04
17.24
15.85
15.72
16.48
17.67
18.79
19.35
18.94
17.32
14.46
10.54
5.88
0.83
-4.35
-9.56
-14.87
-20.51
-26.72
-33.70
-41.46
-49.63
-57.41
-63.56
-66.64
-65.40
-59.16
-48.15
-33.44
-16.71
0.20
15.74
28.82
38.92
45.90
49.90
51.21
50.28
47.62
43.91
39.82
35.99
32.87
30.67
29.36
28.65
28.17
27.53
26.40
24.61
22.07
18.74
14.63
9.78
4.27
-1.77
-8.18
-14.81
-21.65
-28.79
-36.34
-44.37
-52.59
-60.25
-66.12
-68.74
-66.84
-59.78
-47.87
-32.33
-14.96
2.31
17.87
30.61
40.02
46.00
48.82
48.94
47.02
43.83
40.13
36.57
33.63
31.52
30.19
29.44
28.96
28.46
27.66
26.40
24.53
22.03
18.89
15.20
11.07
6.60
1.89
-3.00
-8.08
-13.39
-19.11
-25.43
-32.48
-40.16
-47.90
-54.60
-58.83
-59.16
-54.70
-45.39
-32.15
-16.58
-0.58
14.20
26.52
35.70
41.53
44.12
43.82
41.18
36.94
31.97
27.14
23.18
20.58
19.46
19.59
20.42
21.30
21.58
20.87
19.02
16.17
12.61
8.66
4.53
0.32
-4.03
-8.68
-13.86
-19.78
-26.61
-34.38
-42.82
-51.32
-58.87
-64.19
-66.03
-63.42
-56.11
-44.57
-30.00
-14.04
1.61
15.50
26.61
34.42
38.90
40.35
39.30
36.42
32.42
28.07
24.04
20.88
18.93
18.18
18.34
18.93
19.41
19.37
18.52
16.79
14.20
10.80
6.68
1.98
-3.13
-8.48
-13.97
-19.64
-25.67
-32.31
-39.70
-47.62
-55.38
-61.79
-65.38
-64.79
-59.20
-48.61
-33.90
-16.61
1.44
18.58
33.56
45.62
54.43
59.98
62.51
62.55
60.78
58.11
55.46
53.65
53.17
54.17
56.42
59.44
62.65
65.51
67.62
68.78
68.98
68.33
67.03
65.32
63.39
61.43
59.56
57.80
56.05
54.10
51.73
48.83
45.62
42.79
41.52
43.22
49.18
60.04
75.54
94.47
114.99
135.08
152.96
167.27
177.06
181.70
180.82
174.36
162.71
146.77
127.74
106.98
85.64
64.56
44.24
25.00
7.08
-9.26
-23.83
-36.57
-47.60
-57.22
-65.77
-73.53
-80.64
-87.11
-92.85
-97.84
-102.17
-106.06
-109.84
-113.86
-118.41
-123.61
-129.31
-135.01
-139.82
-142.55
-141.93
-137.06
-127.68
-114.33
-98.24
-81.04
-64.32
-49.36
-37.02
-27.70
-21.45
-18.03
-16.90
-17.31
-18.39
-19.36
-19.66
-19.13
-17.93
-16.46
-15.09
-14.11
-13.61
-13.57
-13.88
-14.51
-15.50
-17.00
-19.21
-22.27
-26.11
-30.45
-34.84
-38.86
-42.27
-45.19
-48.05
-51.40
-55.68
-60.95
-66.76
-72.11
-75.70
-76.19
-72.58
-64.50
-52.38
-37.38
-21.14
-5.44
8.17
18.60
25.41
28.71
29.09
27.39
24.53
21.33
18.36
15.96
14.28
13.34
13.04
13.21
13.55
13.73
13.43
12.41
10.62
8.13
5.07
1.52
-2.47
-6.87
-11.62
-16.57
-21.57
-26.52
-31.48
-36.68
-42.43
-48.93
-56.06
-63.15
-69.07
-72.39
-71.80
-66.56
-56.75
-43.36
-27.93
-12.26
2.08
13.92
22.61
27.92
30.02
29.33
26.53
22.42
17.84
13.52
9.92
7.28
5.56
4.54
3.92
3.37
2.58
1.32
-0.59
-3.27
-6.82
-11.21
-16.33
-22.01
-28.02
-34.22
-40.51
-46.96
-53.69
-60.86
-68.59
-76.91
-85.64
-94.18
-101.45
-105.96
-106.17
-100.95
-90.05
-74.32
-55.52
-35.78
-17.08
-0.81
12.32
22.12
28.70
32.26
33.15
31.87
29.19
26.08
23.50
22.03
21.78
22.45
23.50
24.37
24.65
24.12
22.75
20.55
17.39
13.01
7.22
0.04
-8.24
-17.16
-26.25
-35.07
-43.53
-52.04
-61.33
-72.04
-84.38
-97.92
-111.58
-123.76
-132.10
-134.63
-130.44
-120.08
-105.07
-87.50
-69.48
-52.91
-39.24
-28.32
-19.91
-14.36
-12.51
-14.63
-19.82
-26.08
-31.00
-32.49
-27.54
-14.61
5.47
29.98
56.05
81.76
106.21
128.96
149.86
171.18
194.82
220.84
247.42
272.45
294.53
313.09
328.00
324.94
295.83
244.52
184.35
127.40
79.01
39.54
7.95
-16.69
-34.89
-44.94
-46.13
-40.31
-31.51
-23.73
-19.51
-19.38
-22.00
-26.28
-29.50
-29.48
-25.84
-19.77
-12.66
-5.47
1.68
7.08
10.30
12.19
13.54
14.37
14.11
13.74
12.48
10.17
6.80
2.49
-2.25
-6.85
-11.12
-15.17
-19.08
-23.00
-26.74
-30.13
-33.07
-36.00
-39.00
-42.09
-45.25
-48.21
-50.53
-51.22
-49.24
-43.74
-34.56
-22.02
-7.11
8.74
24.03
37.30
47.70
54.83
58.73
59.53
57.76
54.14
49.36
44.09
38.86
34.15
30.30
27.22
24.15
20.41
15.48
8.91
0.69
-8.93
-19.28
-29.52
-39.09
-48.40
-57.56
-66.50
-75.02
-82.35
-87.49
-89.26
-86.64
-79.24
-68.09
-53.81
-36.51
-16.13
6.32
27.57
43.84
53.16
60.50
67.13
73.41
80.12
84.81
86.93
86.61
84.42
81.27
77.68
73.04
67.37
61.17
54.96
49.46
45.10
42.03
40.30
39.30
37.53
34.22
29.46
23.73
17.71
12.00
6.78
2.14
-2.54
-8.82
-17.87
-30.28
-46.08
-64.86
-85.37
-105.98
-121.23
-125.44
-116.97
-99.36
-78.74
-60.17
-48.10
-41.96
-40.60
-42.84
-47.78
-54.89
-62.12
-67.08
-65.53
-55.32
-37.03
-14.12
9.32
30.29
47.12
59.40
67.37
71.68
72.64
70.86
68.45
65.29
61.21
55.83
48.88
40.38
30.88
21.02
11.52
2.76
-5.46
-13.50
-21.83
-30.36
-38.43
-44.76
-48.07
-47.28
-42.09
-33.15
-21.59
-8.92
3.46
14.47
23.54
30.35
34.74
36.57
35.75
32.64
27.93
22.61
17.65
13.78
11.28
9.98
9.44
9.16
8.92
8.73
8.73
9.00
9.42
9.68
9.38
8.19
5.96
2.82
-0.94
-4.94
-8.90
-12.72
-16.48
-20.42
-24.73
-29.39
-34.03
-37.90
-39.99
-39.39
-35.53
-28.49
-18.96
-8.06
2.94
12.94
21.11
27.00
30.46
31.51
30.43
27.64
23.75
19.49
15.55
12.42
10.35
9.25
8.85
8.84
8.97
9.07
9.00
8.63
7.77
6.23
3.96
1.00
-2.48
-6.26
-10.15
-14.07
-18.02
-22.04
-26.20
-30.48
-34.75
-38.67
-41.63
-42.84
-41.46
-37.00
-29.48
-19.59
-8.48
2.51
12.28
20.09
25.64
28.92
30.04
29.21
26.77
23.23
19.27
15.62
12.83
11.14
10.44
10.34
10.41
10.28
9.76
8.81
7.41
5.57
3.25
0.43
-2.84
-6.44
-10.24
-14.12
-18.09
-22.26
-26.80
-31.79
-37.12
-42.36
-46.78
-49.43
-49.35
-45.92
-39.02
-29.20
-17.52
-5.26
6.33
16.32
24.11
29.46
32.40
33.10
31.93
29.38
26.07
22.60
19.51
17.15
15.66
15.01
15.05
15.49
16.02
16.27
15.86
14.49
12.07
8.70
4.72
0.53
-3.59
-7.52
-11.42
-15.54
-20.12
-25.27
-30.88
-36.61
-41.83
-45.76
-47.45
-46.12
-41.30
-33.12
-22.29
-10.03
2.30
13.51
22.75
29.58
33.90
35.86
35.76
34.12
31.54
28.68
26.10
24.13
22.87
22.21
21.97
21.92
21.85
21.58
20.91
19.65
17.70
15.04
11.76
8.02
3.99
-0.15
-4.31
-8.41
-12.47
-16.55
-20.79
-25.31
-30.18
-35.23
-40.00
-43.72
-45.40
-44.12
-39.35
-31.17
-20.37
-8.25
3.77
14.46
23.07
29.31
33.22
34.96
34.74
32.89
29.88
26.40
23.20
20.89
19.71
19.52
19.83
20.11
19.96
19.31
18.27
17.06
15.75
14.22
12.24
9.61
6.27
2.37
-1.86
-6.15
-10.35
-14.40
-18.38
-22.40
-26.58
-30.91
-35.16
-38.86
-41.31
-41.71
-39.46
-34.30
-26.48
-16.75
-6.12
4.30
13.54
20.90
25.96
28.59
28.94
27.37
24.40
20.70
16.93
13.72
11.48
10.37
10.24
10.73
11.41
11.88
11.91
11.38
10.26
8.54
6.22
3.35
0.04
-3.53
-7.14
-10.62
-13.91
-17.09
-20.32
-23.76
-27.54
-31.65
-35.92
-39.89
-42.89
-44.08
-42.66
-38.16
-30.61
-20.62
-9.27
2.13
12.36
20.53
26.12
29.01
29.39
27.69
24.51
20.60
16.70
13.46
11.27
10.24
10.20
10.76
11.48
11.98
11.99
11.38
10.11
8.20
5.72
2.76
-0.58
-4.17
-7.89
-11.70
-15.58
-19.57
-23.76
-28.25
-33.07
-38.13
-43.10
-47.36
-50.02
-50.11
-46.91
-40.17
-30.38
-18.61
-6.24
5.45
15.56
23.61
29.45
33.04
34.35
33.50
30.84
27.07
23.11
19.84
17.78
16.95
16.93
17.14
17.12
16.67
15.83
14.69
13.28
11.49
9.16
6.19
2.63
-1.33
-5.47
-9.62
-13.76
-17.94
-22.29
-26.94
-31.97
-37.35
-42.81
-47.83
-51.54
-52.89
-50.97
-45.29
-36.05
-24.17
-11.04
1.86
13.31
22.55
29.34
33.74
35.96
36.25
34.94
32.42
29.27
26.16
23.68
22.23
21.85
22.24
22.92
23.39
23.38
22.81
21.77
20.38
18.59
16.25
13.20
9.33
4.77
-0.14
-5.02
-9.54
-13.57
-17.24
-20.88
-24.86
-29.45
-34.70
-40.33
-45.73
-49.96
-51.98
-50.85
-46.01
-37.58
-26.30
-13.46
-0.51
11.28
21.06
28.45
33.40
36.06
36.64
35.48
33.02
29.87
26.69
24.08
22.38
21.67
21.78
22.38
23.11
23.63
23.73
23.28
22.31
20.87
18.99
16.58
13.52
9.73
5.29
0.49
-4.24
-8.49
-12.11
-15.26
-18.30
-21.66
-25.64
-30.26
-35.23
-39.98
-43.71
-45.56
-44.74
-40.78
-33.68
-24.05
-12.89
-1.46
9.08
17.86
24.38
28.46
30.13
29.60
27.26
23.70
19.69
16.03
13.41
12.13
12.12
12.94
14.02
14.87
15.21
14.99
14.30
13.20
11.69
9.66
7.02
3.75
0.00
-3.93
-7.75
-11.26
-14.46
-17.62
-21.11
-25.23
-30.04
-35.23
-40.11
-43.79
-45.34
-44.02
-39.49
-31.90
-21.89
-10.50
1.02
11.49
19.99
26.06
29.62
30.91
30.30
28.26
25.26
21.84
18.53
15.84
14.08
13.36
13.48
14.08
14.72
15.04
14.76
13.76
12.02
9.57
6.49
2.88
-1.10
-5.27
-9.45
-13.49
-17.36
-21.14
-25.07
-29.38
-34.28
-39.68
-45.14
-49.83
-52.69
-52.70
-49.20
-42.09
-31.93
-19.77
-6.91
5.41
16.22
24.89
31.12
34.89
36.36
35.85
33.84
30.92
27.71
24.76
22.44
20.89
20.05
19.68
19.54
19.42
19.21
18.79
18.01
16.68
14.57
11.57
7.74
3.32
-1.33
-5.87
-10.12
-14.11
-17.99
-22.04
-26.47
-31.38
-36.66
-41.92
-46.43
-49.24
-49.33
-45.93
-38.88
-28.70
-16.53
-3.80
8.14
18.37
26.40
32.10
35.52
36.75
35.95
33.44
29.79
25.81
22.34
20.05
19.24
19.72
20.96
22.30
23.16
23.22
22.45
20.99
19.00
16.59
13.74
10.39
6.55
2.38
-1.89
-5.98
-9.78
-13.36
-16.98
-20.96
-25.54
-30.75
-36.31
-41.69
-46.10
-48.66
-48.53
-45.20
-38.59
-29.20
-17.96
-6.05
5.41
15.53
23.69
29.57
33.06
34.20
33.28
30.77
27.39
23.95
21.17
19.50
19.06
19.60
20.65
21.67
22.22
22.08
21.25
19.87
18.10
16.05
13.68
10.90
7.61
3.84
-0.29
-4.51
-8.56
-12.27
-15.60
-18.76
-22.06
-25.79
-30.03
-34.55
-38.77
-41.93
-43.19
-41.90
-37.73
-30.79
-21.61
-11.07
-0.22
9.91
18.45
24.75
28.48
29.58
28.32
25.28
21.26
17.17
13.79
11.61
10.76
10.96
11.77
12.73
13.49
13.83
13.69
13.03
11.86
10.22
8.16
5.72
2.92
-0.22
-3.67
-7.36
-11.19
-15.05
-18.91
-22.83
-26.91
-31.28
-35.90
-40.43
-44.22
-46.34
-45.90
-42.26
-35.32
-25.66
-14.32
-2.60
8.31
17.53
24.55
29.16
31.36
31.29
29.29
25.91
21.93
18.19
15.40
13.91
13.65
14.17
14.90
15.35
15.28
14.68
13.64
12.21
10.34
7.91
4.87
1.31
-2.54
-6.44
-10.27
-14.05
-17.90
-21.94
-26.23
-30.75
-35.42
-40.06
-44.29
-47.43
-48.58
-46.85
-41.71
-33.25
-22.25
-10.00
2.10
12.89
21.64
28.04
32.06
33.84
33.59
31.69
28.66
25.14
21.77
19.04
17.24
16.35
16.20
16.50
16.94
17.28
17.31
16.86
15.80
13.96
11.29
7.83
3.76
-0.62
-5.03
-9.25
-13.21
-17.02
-20.87
-24.99
-29.52
-34.43
-39.39
-43.79
-46.71
-47.18
-44.44
-38.20
-28.82
-17.29
-4.98
6.73
16.74
24.41
29.55
32.30
32.98
32.04
29.97
27.34
24.70
22.50
20.99
20.18
19.88
19.87
19.94
20.09
20.36
20.80
21.30
21.56
21.18
19.84
17.47
14.31
10.88
7.87
5.98
5.87
8.02
12.52
18.92
26.19
33.03
38.37
42.05
45.04
49.12
56.04
66.64
80.23
94.85
108.04
117.76
123.11
124.25
122.07
117.57
111.47
104.18
96.03
87.50
79.24
72.02
66.41
62.62
60.45
59.50
59.33
59.77
60.87
62.81
65.63
69.08
72.59
75.49
77.20
77.44
76.27
73.93
70.70
66.79
62.26
57.08
51.18
44.50
37.04
28.85
20.16
11.37
3.11
-3.89
-8.97
-11.80
-12.54
-11.85
-10.72
-10.19
-11.03
-13.55
-17.63
-22.80
-28.49
-34.15
-39.35
-43.85
-47.52
-50.38
-52.54
-54.15
-55.42
-56.55
-57.72
-59.10
-60.84
-62.98
-65.49
-68.21
-70.97
-73.63
-76.13
-78.49
-80.80
-83.15
-85.62
-88.35
-91.45
-95.03
-98.99
-102.98
-106.31
-108.08
-107.49
-104.04
-97.88
-89.71
-80.63
-71.87
-64.40
-58.75
-55.03
-52.97
-52.12
-52.02
-52.30
-52.74
-53.17
-53.43
-53.32
-52.64
-51.26
-49.22
-46.79
-44.43
-42.64
-41.82
-42.11
-43.38
-45.40
-47.88
-50.59
-53.43
-56.35
-59.41
-62.74
-66.56
-71.03
-76.18
-81.66
-86.76
-90.44
-91.58
-89.33
-83.37
-74.05
-62.32
-49.50
-36.91
-25.62
-16.30
-9.22
-4.37
-1.57
-0.56
-0.95
-2.34
-4.21
-6.16
-7.87
-9.19
-10.05
-10.41
-10.19
-9.37
-8.06
-6.61
-5.54
-5.34
-6.30
-8.39
-11.36
-14.90
-18.86
-23.32
-28.43
-34.36
-41.10
-48.43
-55.95
-63.09
-69.05
-72.84
-73.36
-69.74
-61.61
-49.38
-34.30
-18.03
-2.30
11.56
22.80
31.17
36.70
39.57
40.01
38.39
35.26
31.32
27.38
24.13
22.00
21.05
21.00
21.26
21.19
20.21
18.06
14.74
10.52
5.69
0.45
-5.16
-11.27
-17.98
-25.31
-33.17
-41.41
-49.87
-58.24
-65.97
-72.14
-75.50
-74.83
-69.26
-58.76
-44.25
-27.35
-9.98
6.10
19.67
30.11
37.30
41.39
42.65
41.48
38.38
34.07
29.43
25.33
22.44
21.07
21.09
22.06
23.32
24.25
24.39
23.45
21.30
17.98
13.60
8.33
2.40
-4.01
-10.81
-18.04
-25.86
-34.38
-43.54
-52.92
-61.65
-68.49
-71.99
-70.85
-64.30
-52.33
-35.79
-16.22
4.49
24.50
42.30
56.87
67.69
74.67
78.04
78.33
76.28
72.82
68.92
65.43
63.00
61.93
62.25
63.69
65.87
68.28
70.40
71.79
72.07
70.99
68.47
64.58
59.53
53.68
47.43
41.13
35.03
29.15
23.30
17.20
10.57
3.39
-3.92
-10.45
-14.85
-15.65
-11.70
-2.54
11.34
28.53
47.13
65.16
81.10
94.01
103.52
109.56
112.21
111.70
108.46
103.25
97.10
91.11
86.12
82.51
80.10
78.36
76.61
74.32
71.20
67.16
62.25
56.58
50.25
43.43
36.38
29.44
22.88
16.85
11.24
5.80
0.20
-5.84
-12.44
-19.52
-26.74
-33.44
-38.55
-40.79
-38.98
-32.42
-21.35
-6.89
9.13
24.68
38.05
48.15
54.49
57.14
56.54
53.35
48.42
42.67
36.96
31.96
27.99
25.09
23.05
21.64
20.60
19.68
18.63
17.10
14.75
11.29
6.62
0.89
-5.56
-12.34
-19.12
-25.75
-32.24
-38.73
-45.38
-52.33
-59.61
-67.02
-74.00
-79.55
-82.32
-81.01
-74.77
-63.60
-48.49
-31.15
-13.58
2.46
15.77
25.77
32.38
35.81
36.44
34.85
31.79
28.15
24.85
22.64
21.91
22.68
24.58
27.03
29.39
31.16
32.01
31.85
30.73
28.71
25.86
22.17
17.65
12.41
6.64
0.61
-5.45
-11.47
-17.64
-24.29
-31.75
-39.99
-48.45
-55.96
-60.95
-62.00
-58.27
-49.88
-37.91
-24.09
-10.21
2.24
12.34
19.71
24.32
26.32
25.98
23.68
19.99
15.55
11.05
7.03
3.81
1.44
-0.22
-1.38
-2.26
-3.00
-3.70
-4.48
-5.54
-7.09
-9.35
-12.40
-16.18
-20.46
-24.91
-29.24
-33.27
-37.02
-40.69
-44.63
-49.21
-54.75
-61.23
-68.16
-74.46
-78.65
-79.22
-75.09
-66.01
-52.72
-36.74
-19.94
-4.07
9.57
20.29
27.83
32.24
33.79
32.94
30.35
26.84
23.31
20.45
18.68
17.99
18.03
18.30
18.36
17.95
17.01
15.65
14.00
12.14
10.06
7.64
4.76
1.40
-2.38
-6.38
-10.38
-14.23
-17.92
-21.60
-25.55
-30.02
-35.14
-40.74
-46.24
-50.72
-53.01
-52.04
-47.18
-38.50
-26.83
-13.61
-0.48
11.11
20.16
26.17
29.11
29.27
27.17
23.51
19.08
14.71
11.02
8.38
6.81
6.05
5.70
5.40
4.91
4.11
3.03
1.66
-0.05
-2.16
-4.81
-8.03
-11.77
-15.87
-20.19
-24.59
-29.09
-33.79
-38.84
-44.38
-50.40
-56.72
-62.83
-67.93
-70.91
-70.64
-66.31
-57.72
-45.50
-30.98
-15.87
-1.82
9.95
18.78
24.51
27.30
27.52
25.64
22.25
18.04
13.79
10.16
7.62
6.35
6.18
6.71
7.41
7.81
7.53
6.37
4.26
1.25
-2.53
-6.96
-11.86
-17.05
-22.42
-27.89
-33.46
-39.28
-45.51
-52.36
-59.88
-67.82
-75.49
-81.72
-85.06
-84.18
-78.29
-67.44
-52.62
-35.44
-17.72
-1.13
13.12
24.22
31.76
35.68
36.20
33.93
29.79
24.89
20.32
16.85
14.84
14.16
14.36
14.88
15.20
15.01
14.22
12.88
11.05
8.68
5.64
1.76
-3.02
-8.58
-14.64
-20.83
-26.95
-33.05
-39.43
-46.52
-54.65
-63.69
-72.92
-81.05
-86.37
-87.24
-82.55
-72.11
-56.73
-38.05
-18.05
1.40
18.88
33.49
44.71
52.33
56.32
56.99
54.98
51.28
46.98
43.02
40.01
38.15
37.32
37.20
37.39
37.46
36.97
35.49
32.78
28.77
23.61
17.62
11.15
4.53
-2.05
-8.52
-14.91
-21.38
-28.15
-35.52
-43.72
-52.82
-62.47
-71.77
-79.26
-83.19
-81.96
-74.71
-61.62
-43.96
-23.77
-3.25
15.67
31.74
44.25
53.03
58.14
59.86
58.68
55.32
50.72
45.93
41.88
39.22
38.19
38.52
39.64
40.84
41.48
41.19
39.84
37.47
34.15
29.90
24.71
18.64
11.91
4.85
-2.14
-8.83
-15.19
-21.37
-27.69
-34.51
-42.07
-50.39
-59.12
-67.43
-73.96
-77.12
-75.43
-68.08
-55.19
-37.88
-17.96
2.52
21.71
38.18
50.96
59.57
63.91
64.33
61.64
57.01
51.76
47.04
43.63
41.81
41.45
42.17
43.47
44.87
45.93
46.29
45.70
43.99
41.08
36.98
31.79
25.69
18.94
11.92
4.97
-1.67
-7.94
-13.98
-20.13
-26.79
-34.22
-42.36
-50.62
-57.84
-62.48
-62.94
-58.17
-47.99
-33.29
-15.81
2.34
19.23
33.46
44.25
51.33
54.77
54.85
52.12
47.40
41.75
36.29
31.99
29.41
28.65
29.34
30.83
32.39
33.38
33.35
32.05
29.45
25.67
20.87
15.29
9.13
2.59
-4.18
-11.07
-18.00
-25.04
-32.37
-40.17
-48.51
-57.06
-64.92
-70.76
-73.00
-70.34
-62.24
-49.10
-32.27
-13.62
4.85
21.46
35.02
44.89
50.85
53.09
52.18
48.99
44.60
40.09
36.29
33.68
32.32
32.05
32.56
33.52
34.61
35.44
35.61
34.71
32.44
28.77
23.86
18.08
11.83
5.45
-0.87
-7.10
-13.42
-20.11
-27.54
-35.89
-44.99
-54.06
-61.75
-66.29
-65.98
-59.66
-47.15
-29.36
-8.08
14.40
35.92
54.76
69.95
81.20
88.77
93.21
95.25
95.70
95.42
95.20
95.75
97.51
100.59
104.82
109.79
115.07
120.36
125.56
130.73
135.93
141.04
145.68
149.23
151.06
150.73
148.16
143.61
137.56
130.48
122.58
113.85
104.07
93.07
80.91
68.02
55.25
43.67
34.31
27.84
24.39
23.44
24.09
25.32
26.27
26.37
25.32
22.95
19.14
13.83
7.12
-0.67
-9.04
-17.44
-25.43
-32.86
-39.79
-46.40
-52.83
-59.07
-64.96
-70.28
-74.89
-78.80
-82.18
-85.31
-88.53
-92.04
-95.95
-100.19
-104.59
-108.99
-113.25
-117.33
-121.25
-125.09
-128.95
-132.92
-136.98
-140.84
-143.79
-144.73
-142.41
-135.85
-124.76
-109.84
-92.62
-75.01
-58.79
-45.14
-34.54
-26.94
-22.00
-19.32
-18.44
-18.77
-19.58
-20.04
-19.52
-17.73
-14.85
-11.42
-8.01
-5.09
-2.84
-1.30
-0.48
-0.50
-1.53
-3.70
-6.93
-10.95
-15.31
-19.69
-23.94
-28.17
-32.58
-37.43
-42.83
-48.68
-54.62
-60.01
-63.97
-65.48
-63.56
-57.62
-47.66
-34.45
-19.39
-4.24
9.34
20.14
27.59
31.78
33.20
32.57
30.63
28.10
25.67
23.98
23.49
24.34
26.21
28.48
30.35
31.21
30.72
28.93
26.06
22.39
18.09
13.22
7.86
2.09
-3.94
-10.13
-16.52
-23.29
-30.76
-39.22
-48.74
-59.04
-69.32
-78.35
-84.63
-86.74
-83.78
-75.63
-63.14
-47.88
-31.80
-16.76
-4.14
5.31
11.43
14.48
14.95
13.37
10.30
6.34
2.07
-1.94
-5.25
-7.68
-9.31
-10.44
-11.47
-12.79
-14.60
-16.99
-19.92
-23.32
-27.20
-31.53
-36.25
-41.29
-46.54
-51.95
-57.66
-63.91
-70.94
-78.89
-87.57
-96.34
-104.16
-109.63
-111.29
-107.89
-98.76
-84.03
-64.73
-42.58
-19.69
1.98
20.92
36.26
47.76
55.60
60.18
62.07
61.91
60.47
58.54
56.87
55.97
56.04
56.95
58.27
59.50
60.17
59.95
58.65
56.18
52.48
47.51
41.32
34.07
26.06
17.69
9.29
1.05
-7.10
-15.49
-24.59
-34.71
-45.79
-57.09
-67.25
-74.50
-77.09
-73.83
-64.45
-49.72
-31.21
-10.86
9.48
28.35
44.74
58.04
67.88
74.13
76.92
76.78
74.58
71.41
68.35
66.16
65.15
65.18
65.80
66.47
66.74
66.31
65.05
62.93
59.98
56.18
51.51
45.90
39.34
31.94
23.95
15.77
7.78
0.23
-6.94
-14.08
-21.78
-30.53
-40.52
-51.45
-62.38
-71.90
-78.32
-80.09
-76.23
-66.58
-51.91
-33.73
-13.96
5.48
23.04
37.68
48.85
56.46
60.74
62.16
61.37
59.11
56.18
53.31
51.11
49.91
49.80
50.51
51.58
52.50
52.88
52.60
51.74
50.50
48.94
46.88
43.98
39.91
34.57
28.22
21.38
14.62
8.26
2.30
-3.56
-9.74
-16.53
-24.02
-32.02
-40.11
-47.68
-53.89
-57.74
-58.20
-54.52
-46.48
-34.63
-20.12
-4.51
10.64
24.08
34.94
42.72
47.22
48.54
47.12
43.75
39.44
35.21
31.82
29.57
28.40
27.95
27.88
27.89
27.80
27.45
26.64
25.14
22.75
19.36
15.02
9.95
4.41
-1.28
-6.89
-12.28
-17.44
-22.50
-27.63
-33.07
-38.99
-45.46
-52.41
-59.49
-66.02
-70.94
-73.06
-71.25
-64.89
-54.09
-39.79
-23.51
-6.92
8.46
21.60
31.91
39.15
43.34
44.70
43.71
41.12
37.88
34.95
33.01
32.30
32.60
33.38
34.13
34.52
34.47
34.08
33.41
32.37
30.69
28.02
24.11
19.02
13.10
6.92
1.09
-4.03
-8.41
-12.37
-16.45
-21.20
-27.00
-33.88
-41.45
-48.84
-54.86
-58.12
-57.42
-52.08
-42.16
-28.60
-12.91
3.10
17.84
30.11
39.25
45.05
47.65
47.49
45.22
41.68
37.75
34.24
31.66
30.20
29.70
29.78
30.03
30.13
29.93
29.42
28.62
27.43
25.65
22.99
19.21
14.26
8.38
2.06
-4.12
-9.73
-14.59
-18.90
-23.13
-27.86
-33.54
-40.24
-47.56
-54.57
-59.93
-62.24
-60.35
-53.80
-42.94
-28.97
-13.60
1.41
14.68
25.35
33.14
38.11
40.47
40.51
38.66
35.49
31.78
28.28
25.57
23.87
23.06
22.75
22.53
22.10
21.35
20.31
19.05
17.59
15.83
13.52
10.42
6.39
1.51
-3.87
-9.30
-14.41
-19.06
-23.41
-27.87
-32.86
-38.58
-44.88
-51.21
-56.69
-60.29
-61.01
-58.17
-51.55
-41.48
-28.80
-14.75
-0.68
12.14
22.73
30.47
35.10
36.76
35.87
33.12
29.37
25.49
22.20
19.95
18.82
18.59
18.90
19.38
19.79
20.01
19.95
19.54
18.61
16.99
14.57
11.35
7.51
3.28
-1.11
-5.50
-9.83
-14.19
-18.70
-23.57
-28.95
-34.81
-40.86
-46.41
-50.43
-51.80
-49.61
-43.55
-34.05
-22.20
-9.44
2.82
13.52
22.02
28.05
31.57
32.67
31.62
28.85
24.99
20.78
16.93
13.93
12.01
11.12
11.00
11.28
11.55
11.45
10.72
9.20
6.86
3.80
0.16
-3.82
-8.00
-12.25
-16.56
-20.94
-25.52
-30.43
