1443900964.00
64.000000
-0.00
-0.00
-0.00
-0.00
-0.00
-0.00
-0.00
-0.00
-0.00
-0.00
0.00
0.01
0.01
-0.00
-0.03
-0.05
-0.05
0.00
0.13
0.36
0.66
1.01
1.37
1.72
2.06
2.40
2.79
3.24
3.80
4.42
5.06
5.66
6.20
6.68
7.15
7.68
8.31
9.14
10.09
11.04
11.88
12.56
13.14
13.76
14.65
15.96
17.91
20.32
22.90
25.38
27.58
29.57
31.68
34.32
37.81
42.54
48.15
54.10
59.83
64.97
69.58
74.14
79.34
85.71
93.76
103.00
112.62
121.73
129.77
136.75
143.30
150.75
157.77
166.64
177.95
191.79
206.97
220.57
228.25
225.36
208.53
176.87
132.76
80.05
23.07
-34.94
-92.44
-149.16
-205.23
-260.37
-313.74
-363.87
-409.83
-450.91
-486.50
-515.74
-537.23
-549.22
-549.96
-538.37
-514.21
-478.67
-433.88
-382.45
-327.02
-269.84
-212.63
-156.66
-102.95
-52.37
-5.90
35.58
71.43
101.35
125.49
144.38
158.70
169.18
176.41
180.79
182.57
182.00
179.33
174.96
169.30
162.79
155.78
148.48
141.01
133.40
125.68
117.90
110.15
102.54
95.16
88.06
81.26
74.71
68.37
62.21
56.27
50.63
45.38
40.59
36.26
32.30
28.55
24.87
21.18
17.54
14.12
11.15
8.80
7.06
5.73
4.47
2.97
1.05
-1.19
-3.39
-5.13
-6.08
-6.23
-5.93
-5.73
-6.19
-7.58
-9.73
-12.08
-13.96
-14.88
-14.74
-13.92
-13.04
-12.75
-13.50
-15.59
-19.02
-23.34
-27.43
-29.44
-27.35
-19.82
-7.11
8.57
23.76
35.02
40.32
39.77
35.23
29.19
23.62
19.38
16.43
14.46
13.37
13.33
14.44
16.37
18.36
19.51
19.13
17.04
13.58
9.40
5.19
1.50
-1.27
-2.97
-3.64
-3.52
-3.01
-2.53
-2.31
-2.35
-2.39
-2.12
-1.38
-0.32
0.70
1.28
1.23
0.74
0.27
0.44
1.65
3.98
7.08
10.40
13.40
15.69
17.21
18.08
18.51
18.63
18.51
18.14
17.55
16.89
16.39
16.31
16.78
17.66
18.69
19.44
19.61
19.03
17.77
16.00
13.88
11.48
8.60
5.08
0.88
-3.85
-8.79
-13.53
-17.79
-21.38
-24.29
-26.54
-28.11
-28.97
-29.12
-28.71
-27.99
-27.31
-26.93
-26.96
-27.24
-27.42
-27.04
-25.66
-23.04
-19.12
-14.17
-8.67
-3.24
1.48
5.07
7.37
8.51
8.79
8.54
7.98
7.25
6.50
5.94
5.80
6.28
7.43
9.05
10.75
12.14
12.88
12.86
12.11
10.76
8.97
6.94
4.83
2.74
0.67
-1.37
-3.39
-5.33
-7.15
-8.71
-9.92
-10.80
-11.50
-12.28
-13.45
-15.36
-17.75
-20.50
-23.39
-25.97
-27.68
-27.86
-25.91
-21.45
-14.44
-5.29
5.11
15.61
24.99
32.22
36.64
38.03
36.58
32.75
27.07
20.11
12.44
4.76
-2.17
-7.65
-11.25
-12.97
-13.33
-13.14
-13.31
-14.54
-17.07
-20.78
-25.26
-30.05
-34.86
-39.56
-44.17
-48.63
-52.69
-55.92
-57.85
-58.24
-57.25
-55.41
-53.47
-52.13
-51.87
-52.79
-54.55
-56.40
-57.18
-55.52
-50.20
-40.55
-26.76
-9.97
8.06
25.50
40.94
53.65
63.55
70.87
75.91
78.87
79.96
79.49
77.95
75.93
74.00
72.49
71.36
70.23
68.47
65.41
60.57
53.84
45.56
36.35
26.92
17.73
8.88
0.14
-8.88
-18.39
-28.34
-38.36
-47.95
-56.81
-64.93
-72.67
-80.52
-88.90
-97.94
-107.44
-116.97
-125.94
-133.71
-139.51
-142.53
-142.06
-137.77
-130.00
-119.93
-109.45
-100.75
-95.85
-96.13
-102.02
-112.95
-127.43
-143.27
-157.91
-168.83
-173.98
-172.18
-163.26
-148.13
-128.43
-106.03
-82.36
-57.92
-31.85
-2.22
33.31
76.38
126.92
182.60
239.12
291.36
334.81
366.82
387.12
397.45
400.56
399.06
394.62
387.77
378.26
365.67
349.93
331.44
310.89
288.96
266.10
242.55
218.57
194.67
171.71
150.66
132.29
116.85
103.99
92.96
82.96
73.55
64.77
57.02
50.80
46.36
43.56
41.88
40.57
38.77
35.71
30.77
23.60
14.14
2.74
-9.90
-22.85
-35.13
-45.97
-54.91
-61.84
-66.86
-70.13
-71.73
-71.63
-69.87
-66.71
-62.71
-58.69
-55.48
-53.62
-53.14
-53.63
-54.46
-55.12
-55.42
-55.52
-55.80
-56.59
-58.09
-60.31
-63.16
-66.53
-70.30
-74.44
-78.85
-83.41
-87.91
-92.05
-95.50
-97.96
-99.26
-99.30
-98.17
-96.00
-92.97
-89.25
-84.98
-80.30
-75.47
-70.85
-66.83
-63.73
-61.67
-60.54
-60.01
-59.68
-59.21
-58.42
-57.35
-56.19
-55.19
-54.48
-54.05
-53.68
-53.00
-51.54
-48.85
-44.67
-39.05
-32.36
-25.31
-18.64
-12.98
-8.66
-5.75
-4.05
-3.38
-3.61
-4.68
-6.52
-8.91
-11.44
-13.59
-14.93
-15.18
-14.41
-12.96
-11.26
-9.77
-8.86
-8.75
-9.58
-11.37
-14.00
-17.26
-20.83
-24.34
-27.57
-30.50
-33.31
-36.35
-39.92
-44.16
-48.94
-53.79
-58.05
-60.96
-61.82
-60.19
-56.06
-49.78
-42.01
-33.53
-24.97
-16.77
-9.21
-2.50
3.06
7.06
9.20
9.41
7.99
5.62
3.11
1.19
0.41
0.98
2.85
5.75
9.26
12.86
15.93
17.88
18.29
17.06
14.40
10.83
6.92
3.11
-0.41
-3.68
-6.90
-10.26
-13.88
-17.80
-21.93
-25.94
-29.13
-30.41
-28.51
-22.45
-12.02
1.88
17.43
32.33
44.53
52.70
56.46
56.19
52.65
46.72
39.18
30.77
22.23
14.32
7.78
3.10
0.49
-0.26
0.35
1.58
2.70
3.10
2.39
0.51
-2.41
-6.05
-10.02
-13.98
-17.67
-20.92
-23.70
-26.10
-28.30
-30.61
-33.40
-36.94
-41.24
-45.78
-49.37
-50.36
-47.10
-38.57
-24.85
-7.19
12.27
31.21
47.72
60.69
69.75
75.05
76.99
76.09
73.03
68.75
64.38
61.08
59.72
60.59
63.38
67.31
71.46
75.03
77.58
78.95
79.24
78.54
76.90
74.32
70.82
66.50
61.59
56.29
50.69
44.68
37.98
30.22
21.12
10.63
-1.01
-13.14
-24.75
-34.45
-40.76
-42.43
-38.86
-30.47
-18.62
-5.41
6.98
16.78
22.98
25.33
24.11
19.85
13.19
4.91
-4.04
-12.60
-19.84
-25.22
-28.74
-30.90
-32.43
-33.95
-35.77
-37.87
-40.02
-42.05
-43.97
-46.09
-48.90
-52.84
-58.12
-64.58
-71.79
-79.20
-86.40
-93.32
-100.17
-107.30
-114.93
-122.96
-130.83
-137.59
-141.96
-142.52
-138.05
-127.94
-112.51
-93.20
-72.38
-52.79
-36.79
-25.70
-19.60
-17.55
-18.19
-20.31
-23.22
-26.71
-30.77
-35.23
-39.60
-43.11
-45.03
-44.92
-42.81
-39.03
-34.03
-28.13
-21.51
-14.32
-6.91
0.16
6.17
10.51
12.94
13.68
13.23
12.02
10.11
7.18
2.61
-4.10
-12.97
-23.28
-33.66
-42.30
-47.38
-47.47
-41.84
-30.64
-14.95
3.41
22.16
39.00
52.06
60.21
63.24
61.71
56.69
49.41
41.03
32.48
24.49
17.68
12.58
9.61
8.85
9.98
12.27
14.73
16.35
16.46
14.88
11.91
8.05
3.79
-0.53
-4.52
-7.45
-8.20
-5.60
0.86
10.41
20.83
29.09
32.39
29.25
20.04
6.70
-7.97
-21.21
-30.81
-35.31
-33.99
-26.86
-14.72
0.83
17.69
33.73
47.33
57.69
64.81
69.16
71.34
71.83
70.92
68.85
65.90
62.48
59.03
55.92
53.31
51.13
49.16
47.20
45.19
43.22
41.40
39.69
37.85
35.51
32.33
28.15
23.15
17.71
12.34
7.54
3.59
0.48
-2.14
-4.92
-8.65
-13.85
-20.55
-28.03
-34.95
-39.79
-41.27
-38.89
-33.02
-24.85
-16.03
-8.30
-3.01
-0.88
-1.81
-4.98
-9.13
-13.09
-16.13
-18.14
-19.52
-20.77
-22.25
-23.97
-25.67
-27.04
-27.86
-28.07
-27.62
-26.43
-24.30
-21.03
-16.53
-10.89
-4.35
2.84
10.54
18.66
27.23
36.21
45.47
54.75
63.67
71.79
78.79
84.63
89.60
94.28
99.36
105.37
112.45
120.34
128.43
136.03
142.55
147.49
150.44
151.01
148.88
143.90
136.23
126.42
115.24
103.53
92.03
81.35
71.88
63.86
57.26
51.88
47.33
43.12
38.80
33.96
28.27
21.41
13.12
3.31
-7.82
-19.69
-31.51
-42.46
-52.03
-60.11
-67.02
-73.25
-79.31
-85.45
-91.62
-97.41
-102.06
-104.54
-103.78
-98.96
-89.89
-77.14
-61.97
-46.05
-30.96
-17.93
-7.62
-0.31
4.01
5.51
4.46
1.41
-2.82
-7.21
-10.83
-13.01
-13.57
-12.74
-11.07
-9.15
-7.53
-6.60
-6.61
-7.72
-10.01
-13.47
-17.97
-23.19
-28.65
-33.84
-38.38
-42.19
-45.56
-48.94
-52.85
-57.57
-63.11
-69.15
-75.08
-80.02
-82.88
-82.51
-78.01
-69.04
-56.09
-40.49
-24.09
-8.73
4.19
13.88
20.09
22.92
22.63
19.67
14.72
8.75
2.89
-1.85
-4.88
-6.16
-6.19
-5.80
-5.81
-6.72
-8.53
-10.73
-12.45
-12.80
-11.20
-7.58
-2.27
4.16
11.26
18.83
26.85
35.34
44.13
52.79
60.75
67.45
72.47
75.67
77.18
77.38
76.92
76.61
77.24
79.43
83.35
88.66
94.56
100.01
103.94
105.48
104.02
99.36
91.63
81.34
69.31
56.58
44.23
33.15
23.83
16.22
9.76
3.63
-2.92
-10.21
-18.02
-25.67
-32.39
-37.71
-41.65
-44.69
-47.50
-50.57
-54.03
-57.64
-61.01
-63.86
-66.09
-67.87
-69.46
-71.14
-73.17
-75.76
-79.07
-83.10
-87.59
-91.82
-94.68
-94.84
-91.15
-83.09
-71.00
-56.11
-40.12
-24.79
-11.51
-1.09
6.18
10.40
11.90
11.19
8.93
5.89
2.84
0.41
-1.09
-1.70
-1.71
-1.57
-1.64
-2.07
-2.65
-2.86
-2.02
0.38
4.46
9.79
15.52
20.76
24.90
27.78
29.61
30.74
31.32
31.30
30.41
28.43
25.30
21.20
16.50
11.70
7.38
4.13
2.53
2.95
5.40
9.40
14.05
18.27
21.04
21.72
20.05
16.22
10.69
4.11
-2.74
-9.04
-14.03
-17.14
-18.10
-16.98
-14.17
-10.22
-5.64
-0.85
3.81
8.06
11.59
14.04
15.13
14.78
13.15
10.65
7.80
5.00
2.35
-0.36
-3.57
-7.81
-13.45
-20.69
-29.52
-39.60
-50.24
-60.21
-67.90
-71.58
-69.97
-62.77
-50.96
-36.52
-21.84
-8.97
0.89
7.45
11.03
12.15
11.23
8.60
4.72
0.32
-3.56
-5.94
-6.17
-4.23
-0.65
3.70
7.92
11.40
13.85
15.23
15.62
15.01
13.35
10.61
6.87
2.44
-2.19
-6.44
-9.86
-12.29
-13.92
-15.26
-16.91
-19.36
-22.82
-27.09
-31.60
-35.40
-37.32
-36.17
-30.97
-21.41
-7.94
8.15
25.10
41.09
54.68
65.04
71.88
75.34
75.75
73.65
69.76
64.96
60.18
56.20
53.50
52.14
51.82
51.97
51.91
51.01
48.82
45.14
40.07
33.82
26.51
18.07
8.25
-3.15
-16.10
-30.15
-44.52
-58.36
-71.04
-82.34
-92.55
-102.36
-112.69
-124.38
-137.71
-152.03
-165.56
-175.57
-179.09
-173.79
-158.78
-134.90
-104.48
-70.59
-36.34
-4.23
24.01
47.51
66.03
79.87
89.68
96.35
100.82
104.04
106.89
110.09
114.10
118.92
124.05
128.58
131.48
132.02
130.05
125.94
120.31
113.67
106.18
97.75
88.34
78.19
67.88
58.09
49.24
41.26
33.68
25.90
17.69
9.38
1.92
-3.46
-5.59
-3.80
1.84
10.55
20.92
31.24
39.85
45.45
47.37
45.65
40.88
34.00
26.05
17.87
10.15
3.42
-1.88
-5.35
-6.76
-6.11
-3.70
-0.02
4.32
8.58
11.81
12.90
10.65
4.20
-6.59
-20.92
-37.35
-54.26
-70.50
-85.70
-100.10
-114.15
-128.13
-141.97
-155.41
-168.11
-179.65
-189.34
-196.04
-198.31
-194.81
-184.93
-169.23
-149.36
-127.72
-106.76
-88.44
-73.96
-63.82
-57.88
-55.59
-56.09
-58.28
-61.04
-63.34
-64.44
-63.98
-61.92
-58.46
-53.91
-48.64
-43.15
-38.03
-34.04
-32.01
-32.60
-36.06
-42.06
-49.48
-56.42
-60.26
-57.95
-46.69
-24.68
8.01
48.96
93.61
136.41
172.47
199.03
216.21
226.51
233.42
239.80
246.82
253.79
258.96
260.59
257.75
250.57
239.83
226.44
211.02
193.88
175.28
155.76
136.30
118.10
102.21
89.15
78.63
69.71
61.25
52.38
42.82
32.92
23.31
14.53
6.72
-0.43
-7.46
-14.81
-22.59
-30.49
-37.96
-44.47
-49.78
-54.03
-57.72
-61.43
-65.61
-70.34
-75.22
-79.44
-81.87
-81.41
-77.30
-69.45
-58.56
-45.98
-33.39
-22.39
-14.06
-8.86
-6.62
-6.77
-8.61
-11.42
-14.63
-17.75
-20.38
-22.24
-23.19
-23.26
-22.70
-21.86
-21.22
-21.16
-21.94
-23.59
-26.00
-28.95
-32.23
-35.65
-39.11
-42.46
-45.60
-48.42
-50.93
-53.24
-55.58
-58.19
-61.20
-64.53
-67.76
-70.15
-70.68
-68.31
-62.35
-52.74
-40.28
-26.42
-12.88
-1.10
8.13
14.66
18.75
20.70
20.66
18.74
15.21
10.78
6.51
3.51
2.51
3.62
6.24
9.43
12.19
13.85
14.21
13.50
12.15
10.57
8.99
7.35
5.43
2.92
-0.31
-4.22
-8.58
-13.09
-17.53
-21.83
-26.09
-30.51
-35.34
-40.75
-46.83
-53.48
-60.29
-66.45
-70.75
-71.83
-68.59
-60.62
-48.50
-33.75
-18.41
-4.42
6.91
15.07
20.20
22.77
23.24
21.98
19.37
15.97
12.58
10.09
9.14
9.91
12.01
14.61
16.74
17.70
17.22
15.45
12.80
9.70
6.43
3.06
-0.47
-4.25
-8.31
-12.61
-17.01
-21.34
-25.48
-29.34
-32.93
-36.31
-39.63
-43.08
-46.92
-51.40
-56.68
-62.66
-68.79
-73.98
-76.67
-75.26
-68.69
-56.89
-40.96
-22.95
-5.17
10.38
22.51
30.83
35.52
37.06
36.04
33.16
29.30
25.49
22.74
21.76
22.75
25.35
28.79
32.17
34.75
36.10
36.10
34.86
32.63
29.66
26.16
22.31
18.28
14.12
9.85
5.45
0.94
-3.57
-7.88
-11.79
-15.20
-18.24
-21.24
-24.59
-28.59
-33.40
-38.96
-44.93
-50.70
-55.29
-57.46
-55.92
-49.78
-38.89
-24.13
-7.24
9.60
24.39
35.74
43.05
46.38
46.21
43.22
38.22
32.12
26.02
21.01
18.02
17.58
19.57
23.32
27.77
31.75
34.36
35.14
34.11
31.65
28.20
24.16
19.72
14.94
9.83
4.41
-1.19
-6.81
-12.25
-17.40
-22.18
-26.60
-30.71
-34.57
-38.24
-41.85
-45.60
-49.69
-54.14
-58.59
-62.09
-63.17
-60.19
-51.98
-38.39
-20.55
-0.69
18.56
34.97
47.21
55.01
58.87
59.58
57.86
54.32
49.55
44.35
39.72
36.62
35.68
36.87
39.53
42.62
45.07
46.22
45.88
44.29
41.84
38.86
35.48
31.66
27.27
22.20
16.49
10.30
3.93
-2.25
-7.88
-12.70
-16.68
-20.05
-23.24
-26.71
-30.82
-35.74
-41.35
-47.21
-52.48
-55.97
-56.33
-52.37
-43.50
-30.06
-13.40
4.44
21.26
35.25
45.38
51.38
53.50
52.33
48.53
42.90
36.39
30.06
24.99
22.01
21.52
23.33
26.73
30.65
34.04
36.10
36.46
35.23
32.77
29.56
25.95
22.06
17.83
13.20
8.19
3.02
-1.97
-6.46
-10.28
-13.46
-16.27
-19.02
-22.04
-25.52
-29.53
-33.98
-38.59
-42.79
-45.63
-45.95
-42.64
-35.09
-23.57
-9.29
5.88
19.93
31.20
38.76
42.38
42.38
39.40
34.19
27.66
20.84
14.82
10.58
8.75
9.41
12.03
15.64
19.18
21.78
23.06
23.09
22.23
20.83
19.00
16.66
13.55
9.60
4.98
0.13
-4.45
-8.44
-11.80
-14.76
-17.65
-20.73
-24.14
-27.92
-31.96
-35.98
-39.42
-41.36
-40.71
-36.53
-28.48
-17.07
-3.65
9.97
22.03
31.24
36.92
38.95
37.57
33.27
26.76
18.93
10.91
3.88
-1.15
-3.60
-3.46
-1.31
1.93
5.23
7.81
9.24
9.44
8.55
6.70
3.95
0.32
-4.11
-9.10
-14.24
-19.09
-23.37
-27.02
-30.26
-33.44
-36.94
-41.10
-46.11
-51.85
-57.84
-63.04
-66.02
-65.27
-59.77
-49.36
-34.97
-18.44
-1.95
12.55
23.76
31.13
34.71
34.86
32.14
27.23
21.03
14.63
9.17
5.56
4.29
5.19
7.64
10.72
13.62
15.77
16.97
17.24
16.63
15.09
12.47
8.67
3.78
-1.86
-7.72
-13.27
-18.21
-22.55
-26.54
-30.57
-34.97
-39.87
-45.18
-50.52
-55.12
-57.85
-57.42
-52.69
-43.17
-29.33
-12.65
4.72
20.60
33.32
41.99
46.57
47.50
45.43
41.04
35.12
28.58
22.53
18.03
15.86
16.21
18.60
22.02
25.31
27.53
28.24
27.47
25.58
22.91
19.62
15.62
10.81
5.17
-1.00
-7.19
-12.85
-17.63
-21.54
-24.93
-28.32
-32.18
-36.74
-41.85
-46.99
-51.28
-53.60
-52.83
-48.09
-39.12
-26.44
-11.42
4.12
18.25
29.45
36.86
40.25
39.93
36.57
31.09
24.63
18.43
13.63
11.03
10.90
12.92
16.32
20.24
23.90
26.81
28.79
29.83
30.00
29.36
27.93
25.68
22.62
18.88
14.66
10.20
5.73
1.39
-2.84
-7.10
-11.64
-16.69
-22.26
-27.98
-33.01
-36.09
-35.88
-31.38
-22.41
-9.81
4.70
18.99
31.01
39.35
43.41
43.37
39.97
34.21
27.18
19.91
13.30
8.07
4.66
3.18
3.39
4.79
6.69
8.44
9.51
9.54
8.42
6.20
3.06
-0.72
-4.87
-9.20
-13.62
-18.17
-22.90
-27.88
-33.10
-38.54
-44.16
-49.89
-55.51
-60.42
-63.63
-63.88
-59.98
-51.35
-38.34
-22.29
-5.22
10.76
24.00
33.62
39.49
41.99
41.70
39.23
35.17
30.23
25.18
20.85
17.82
16.36
16.30
17.20
18.46
19.56
20.06
19.65
18.12
15.31
11.24
6.10
0.29
-5.66
-11.28
-16.32
-20.76
-24.84
-28.86
-33.15
-37.92
-43.22
-48.85
-54.21
-58.22
-59.42
-56.37
-48.11
-34.77
-17.63
1.08
18.88
33.74
44.55
51.16
54.06
53.92
51.40
47.08
41.65
35.99
31.12
27.91
26.79
27.54
29.36
31.19
32.15
31.78
30.21
27.87
25.23
22.44
19.32
15.45
10.53
4.64
-1.73
-7.90
-13.28
-17.67
-21.33
-24.81
-28.73
-33.48
-39.04
-44.95
-50.36
-54.10
-54.91
-51.71
-43.96
-31.89
-16.66
-0.13
15.66
28.99
38.83
44.88
47.43
46.94
43.97
39.09
33.12
27.07
22.12
19.18
18.68
20.31
23.21
26.29
28.65
29.79
29.64
28.41
26.34
23.63
20.32
16.39
11.79
6.63
1.11
-4.40
-9.53
-14.00
-17.77
-21.07
-24.33
-28.00
-32.37
-37.43
-42.77
-47.65
-50.95
-51.49
-48.24
-40.66
-29.03
-14.49
1.16
15.87
27.92
36.24
40.56
41.20
38.85
34.32
28.50
22.35
16.92
13.15
11.65
12.46
14.97
18.08
20.60
21.70
21.16
19.34
16.87
14.24
11.54
8.49
4.68
-0.09
-5.60
-11.36
-16.76
-21.43
-25.32
-28.76
-32.22
-36.10
-40.59
-45.53
-50.33
-54.04
-55.45
-53.39
-47.09
-36.51
-22.51
-6.74
8.77
22.05
31.70
37.03
38.14
35.69
30.68
24.24
17.45
11.31
6.61
3.86
3.17
4.21
6.26
8.43
9.91
10.19
9.23
7.29
4.78
2.03
-0.85
-3.91
-7.22
-10.79
-14.46
-18.03
-21.45
-24.81
-28.37
-32.44
-37.25
-42.76
-48.53
-53.68
-56.87
-56.63
-51.72
-41.68
-27.12
-9.71
8.23
24.44
37.25
45.92
50.54
51.63
49.89
46.01
40.72
34.85
29.35
25.07
22.60
22.06
23.09
25.01
27.04
28.58
29.28
29.06
27.91
25.79
22.58
18.13
12.43
5.76
-1.37
-8.31
-14.57
-19.96
-24.68
-29.14
-33.84
-39.21
-45.39
-52.17
-58.81
-64.09
-66.45
-64.46
-57.35
-45.42
-30.11
-13.58
1.95
14.81
24.18
30.00
32.65
32.65
30.46
26.61
21.82
16.99
13.10
10.88
10.65
12.19
14.93
18.13
21.11
23.40
24.67
24.75
23.58
21.22
17.89
13.89
9.61
5.40
1.54
-1.85
-4.73
-7.15
-9.16
-10.93
-12.66
-14.51
-16.48
-18.19
-18.84
-17.38
-12.88
-4.99
5.83
18.30
30.73
41.53
49.56
54.32
55.78
54.12
49.66
42.83
34.28
24.94
16.00
8.61
3.63
1.39
1.68
3.82
6.94
10.15
12.76
14.29
14.46
13.15
10.34
6.07
0.57
-5.78
-12.46
-18.88
-24.64
-29.64
-34.16
-38.72
-43.79
-49.49
-55.38
-60.43
-63.28
-62.64
-57.73
-48.51
-35.85
-21.26
-6.62
6.33
16.26
22.45
24.82
23.75
19.97
14.37
7.94
1.65
-3.61
-7.20
-8.81
-8.56
-6.89
-4.44
-1.89
0.22
1.57
2.04
1.65
0.46
-1.46
-4.07
-7.31
-11.04
-15.10
-19.30
-23.47
-27.49
-31.36
-35.20
-39.16
-43.24
-47.12
-50.03
-50.81
-48.22
-41.44
-30.50
-16.42
-1.04
13.52
25.38
33.39
37.23
37.25
34.20
28.99
22.55
15.80
9.61
4.74
1.75
0.88
1.94
4.39
7.43
10.23
12.07
12.53
11.52
9.18
5.81
1.75
-2.69
-7.25
-11.77
-16.13
-20.35
-24.61
-29.16
-34.27
-40.00
-45.94
-51.14
-54.18
-53.54
-48.19
-37.97
-23.85
-7.69
8.24
21.89
31.88
37.63
39.24
37.25
32.36
25.35
17.16
8.81
1.42
-3.98
-6.63
-6.35
-3.53
0.84
5.48
9.17
11.02
10.66
8.22
4.18
-0.85
-6.32
-11.81
-17.10
-22.17
-27.13
-32.21
-37.70
-43.80
-50.49
-57.33
-63.28
-66.79
-66.10
-59.84
-47.59
-30.33
-10.28
9.67
26.87
39.53
47.05
49.83
48.75
44.82
38.90
31.81
24.45
17.83
12.92
10.37
10.37
12.54
16.12
20.14
23.68
26.02
26.74
25.80
23.35
19.76
15.43
10.69
5.83
1.03
-3.57
-7.97
-12.33
-16.92
-21.99
-27.46
-32.66
-36.21
-36.39
-31.68
-21.49
-6.57
11.04
28.66
43.75
54.61
60.65
62.18
60.00
54.98
47.96
39.74
31.25
23.54
17.62
14.22
13.51
15.04
17.94
21.12
23.65
24.92
24.68
22.98
20.01
16.00
11.16
5.69
-0.23
-6.42
-12.72
-19.06
-25.42
-31.81
-38.24
-44.59
-50.45
-55.04
-57.18
-55.61
-49.32
-38.16
-23.00
-5.75
11.22
25.68
36.22
42.40
44.55
43.35
39.56
33.90
27.14
20.25
14.32
10.35
8.88
9.80
12.35
15.43
17.97
19.20
18.88
17.11
14.22
10.56
6.40
1.93
-2.67
-7.24
-11.69
-15.97
-20.13
-24.31
-28.70
-33.44
-38.55
-43.79
-48.53
-51.71
-52.03
-48.35
-40.10
-27.63
-12.33
3.75
18.42
29.99
37.55
41.01
40.88
37.88
32.82
26.44
19.58
13.15
8.07
5.10
4.60
6.35
9.55
13.08
15.81
17.02
16.50
14.53
11.62
8.28
4.77
1.08
-2.95
-7.44
-12.39
-17.59
-22.71
-27.44
-31.62
-35.32
-38.77
-42.16
-45.34
-47.60
-47.79
-44.64
-37.28
-25.81
-11.35
4.16
18.51
29.86
37.12
40.05
39.10
35.05
28.83
21.46
13.97
7.44
2.81
0.73
1.34
4.17
8.23
12.35
15.48
17.00
16.77
15.06
12.33
8.96
5.19
1.14
-3.17
-7.67
-12.31
-17.02
-21.85
-26.95
-32.50
-38.52
-44.62
-49.84
-52.75
-51.84
-46.10
-35.49
-21.18
-5.26
9.91
22.32
30.81
35.11
35.63
33.04
28.07
21.45
13.91
6.35
-0.32
-5.25
-7.97
-8.59
-7.73
-6.40
-5.69
-6.53
-9.51
-14.73
-21.79
-29.91
-38.05
-45.27
-51.07
-55.65
-59.87
-64.91
-71.66
-80.31
-90.26
-100.48
-109.99
-118.12
-124.46
-128.52
-129.45
-126.22
-118.03
-104.87
-87.74
-68.37
-48.58
-29.65
-12.00
4.72
21.38
39.06
58.82
81.55
107.75
137.31
169.36
202.31
234.00
262.19
284.94
301.05
310.24
313.09
310.62
303.72
292.42
275.43
250.33
214.54
166.75
108.34
43.76
-20.36
-77.21
-121.96
-153.07
-172.12
-182.28
-186.43
-185.84
-180.22
-168.82
-151.79
-130.80
-108.70
-88.35
-71.54
-58.58
-48.69
-40.96
-34.97
-31.02
-29.60
-30.84
-33.96
-37.44
-39.44
-38.60
-34.48
-27.80
-20.00
-12.80
-7.54
-4.84
-4.54
-6.01
-8.42
-11.20
-14.10
-17.15
-20.52
-24.27
-28.34
-32.57
-36.81
-41.03
-45.31
-49.74
-54.28
-58.50
-61.55
-62.19
-59.14
-51.51
-39.16
-22.96
-4.70
13.47
29.52
42.08
50.57
55.01
55.72
53.15
47.91
40.93
33.49
27.04
22.86
21.60
23.09
26.45
30.43
33.88
36.06
36.67
35.74
33.45
29.90
25.21
19.46
12.82
5.65
-1.64
-8.52
-14.62
-19.75
-24.03
-27.80
-31.53
-35.62
-40.26
-45.24
-49.82
-52.77
-52.62
-48.14
-38.80
-25.15
-8.78
8.05
23.09
34.65
41.90
44.81
43.88
39.88
33.75
26.59
19.64
14.11
10.96
10.58
12.69
16.49
20.87
24.75
27.30
28.06
26.86
23.86
19.41
14.03
8.32
2.73
-2.47
-7.31
-12.03
-16.91
-22.16
-27.83
-33.88
-40.24
-46.78
-53.22
-58.76
-62.10
-61.59
-55.86
-44.42
-28.11
-9.00
10.24
27.15
40.02
48.20
51.87
51.62
48.25
42.63
35.76
28.76
22.79
18.75
17.13
17.81
20.21
23.39
26.32
28.10
28.15
26.29
22.77
18.03
12.56
6.72
0.66
-5.52
-11.74
-17.84
-23.66
-29.13
-34.37
-39.68
-45.31
-51.20
-56.77
-60.85
-61.87
-58.41
-49.60
-35.65
-17.90
1.47
20.01
35.68
47.26
54.41
57.45
56.96
53.53
47.82
40.66
33.17
26.63
22.15
20.36
21.10
23.55
26.57
29.04
30.25
29.95
28.25
25.37
21.52
16.84
11.42
5.46
-0.80
-7.03
-13.00
-18.61
-24.00
-29.41
-35.10
-41.26
-47.74
-54.04
-59.21
-61.94
-60.91
-55.12
-44.39
-29.54
-12.31
5.11
20.67
32.95
41.33
45.88
46.99
45.19
41.05
35.34
29.10
23.52
19.73
18.37
19.36
21.98
25.17
27.89
29.49
29.81
29.04
27.47
25.29
22.47
18.86
14.38
9.11
3.37
-2.43
-7.95
-13.04
-17.83
-22.61
-27.67
-33.13
-38.78
-44.08
-48.13
-49.79
-47.99
-41.96
-31.64
-17.82
-2.10
13.47
26.93
36.88
42.72
44.60
43.13
39.07
33.24
26.45
19.66
13.92
10.17
8.95
10.20
13.22
16.94
20.26
22.38
22.97
22.08
19.94
16.83
12.97
8.52
3.62
-1.50
-6.57
-11.32
-15.52
-19.11
-22.28
-25.41
-28.95
-33.18
-37.91
-42.30
-44.99
-44.45
-39.56
-30.10
-16.88
-1.65
13.46
26.43
35.81
40.88
41.67
38.78
33.18
26.06
18.58
11.82
6.57
3.32
2.19
2.97
5.17
8.09
10.94
13.02
13.82
13.11
10.95
7.59
3.36
-1.40
-6.39
-11.32
-15.90
-20.02
-23.74
-27.36
-31.30
-35.92
-41.24
-46.72
-51.21
-53.25
-51.39
-44.77
-33.43
-18.47
-1.83
14.13
27.25
36.03
39.87
39.12
34.73
27.94
20.00
11.97
4.73
-0.99
-4.69
-6.07
-5.23
-2.63
0.87
4.24
6.51
6.99
5.46
2.10
-2.56
-7.93
-13.55
-19.18
-24.77
-30.34
-35.86
-41.30
-46.65
-52.00
-57.41
-62.63
-66.83
-68.59
-66.31
-58.82
-46.08
-29.38
-11.05
6.31
20.67
31.07
37.56
40.83
41.72
40.88
38.88
36.27
33.76
32.19
32.20
34.04
37.40
41.49
45.36
48.23
49.64
49.48
47.87
44.97
40.95
35.97
30.20
23.82
17.07
10.16
3.27
-3.50
-10.12
-16.59
-22.77
-28.23
-32.12
-33.29
-30.61
-23.37
-11.81
2.84
18.58
33.20
44.98
52.98
57.01
57.41
54.71
49.49
42.41
34.26
26.01
18.62
12.82
8.99
7.05
6.56
6.89
7.33
7.22
6.04
3.52
-0.24
-4.87
-9.90
-14.93
-19.92
-25.03
-30.45
-36.20
-42.06
-47.71
-52.92
-57.57
-61.46
-64.00
-64.11
-60.41
-51.88
-38.45
-21.32
-2.78
14.59
28.64
38.16
42.92
43.38
40.32
34.59
27.14
19.08
11.51
5.36
1.09
-1.42
-2.71
-3.42
-3.96
-4.46
-4.86
-5.25
-6.03
-7.79
-11.11
-16.20
-22.82
-30.43
-38.37
-46.13
-53.41
-60.06
-65.92
-70.81
-74.49
-76.68
-77.01
-74.95
-69.80
-60.94
-48.06
-31.60
-12.84
6.25
23.51
37.16
46.14
50.24
49.86
45.75
38.79
29.88
19.97
10.05
1.00
-6.47
-12.01
-15.59
-17.51
-18.28
-18.55
-18.96
-20.02
-21.96
-24.63
-27.61
-30.41
-32.77
-34.76
-36.79
-39.37
-42.87
-47.36
-52.66
-58.33
-63.77
-68.17
-70.45
-69.40
-63.90
-53.42
-38.37
-20.22
-1.14
16.50
30.81
40.72
46.03
47.16
44.88
40.09
33.84
27.24
21.44
17.39
15.65
16.25
18.65
22.00
25.40
28.09
29.63
29.79
28.56
25.97
22.13
17.23
11.59
5.56
-0.52
-6.40
-12.10
-17.82
-23.96
-30.80
-38.34
-46.02
-52.70
-56.82
-56.75
-51.34
-40.31
-24.48
-5.65
13.86
31.83
46.57
57.17
63.41
65.59
64.27
60.21
54.37
47.91
42.10
38.00
36.25
36.81
39.06
41.99
44.62
46.23
46.49
45.40
43.14
39.88
35.74
30.78
25.06
18.74
12.11
5.49
-0.79
-6.51
-11.68
-16.58
-21.69
-27.45
-34.06
-41.13
-47.57
-51.73
-51.84
-46.61
-35.78
-20.32
-2.22
16.06
32.32
45.11
53.96
59.14
61.32
61.23
59.43
56.41
52.66
48.76
45.35
42.99
41.92
41.93
42.37
42.33
40.97
37.84
33.07
27.25
21.13
15.26
9.79
4.47
-1.10
-7.07
-13.23
-19.06
-24.03
-27.88
-30.75
-33.15
-35.73
-39.02
-43.22
-48.09
-52.87
-56.43
-57.41
-54.55
-47.11
-35.20
-19.84
-2.79
13.94
28.58
40.00
47.75
51.89
52.75
50.76
46.50
40.76
34.61
29.27
25.76
24.64
25.82
28.57
31.88
34.76
36.51
36.81
35.73
33.57
30.68
27.39
23.89
20.23
16.33
12.08
7.41
2.38
-2.83
-7.98
-12.89
-17.53
-22.04
-26.68
-31.78
-37.58
-44.07
-50.76
-56.65
-60.32
-60.38
-55.95
-47.14
-35.12
-21.80
-9.23
0.99
7.94
11.37
11.46
8.56
3.18
-4.04
-12.24
-20.38
-27.39
-32.50
-35.40
-36.27
-35.66
-34.21
-32.45
-30.56
-28.46
-25.85
-22.48
-18.27
-13.41
-8.35
-3.62
0.29
2.98
4.21
3.91
2.22
-0.60
-4.22
-8.48
-13.36
-19.06
-25.80
-33.57
-41.84
-49.51
-55.01
-56.73
-53.58
-45.36
-32.92
-17.87
-2.08
12.79
25.58
35.66
42.64
46.23
46.22
42.70
36.30
28.35
20.56
14.55
11.44
11.58
14.62
19.88
26.70
34.57
43.20
52.40
61.93
71.41
80.29
87.96
93.78
97.23
97.93
95.71
90.58
82.86
72.97
61.49
48.95
35.79
22.29
8.61
-5.21
-19.15
-33.05
-46.52
-58.83
-68.97
-75.89
-78.82
-77.66
-73.10
-66.54
-59.66
-53.95
-50.38
-49.20
-50.10
-52.40
-55.18
-57.45
-58.31
-57.09
-53.55
-47.97
-41.08
-33.83
-27.09
-21.48
-17.29
-14.58
-13.24
-13.17
-14.19
-16.12
-18.73
-21.75
-24.92
-27.99
-30.82
-33.42
-35.97
-38.82
-42.31
-46.58
-51.41
-56.14
-59.72
-60.92
-58.54
-51.75
-40.30
-24.66
-6.10
13.66
32.89
50.34
65.62
79.16
91.87
104.59
117.66
130.80
143.23
154.07
162.72
168.92
172.82
174.72
174.90
173.48
170.43
165.58
158.58
148.92
135.97
119.14
98.22
73.70
46.92
19.88
-5.29
-27.08
-45.07
-60.08
-73.83
-88.20
-104.48
-122.87
-142.27
-160.52
-175.04
-183.34
-183.71
-175.62
-159.82
-138.23
-113.61
-88.98
-67.10
-50.05
-38.75
-32.95
-31.20
-31.17
-30.20
-25.83
-16.51
-1.95
16.68
37.14
56.64
72.59
83.30
88.25
88.01
83.79
76.88
68.17
58.13
46.93
34.81
22.35
10.40
-0.20
-8.98
-16.16
-22.51
-29.08
-36.72
-45.65
-55.33
-64.52
-71.58
-74.91
-73.44
-67.01
-56.46
-43.42
-29.80
-17.27
-6.87
0.96
6.18
8.84
9.02
6.92
3.02
-1.76
-6.33
-9.69
-11.28
-11.10
-9.68
-7.78
-6.18
-5.41
-5.74
-7.19
-9.62
-12.82
-16.56
-20.54
-24.44
-27.95
-30.94
-33.59
-36.45
-40.32
-46.04
-54.06
-64.12
-75.07
-84.89
-90.98
-90.71
-82.09
-64.42
-38.70
-7.57
25.27
55.96
81.55
100.58
113.23
120.94
125.77
129.77
134.65
141.46
150.50
161.17
172.00
180.88
185.68
184.94
178.39
167.00
152.59
137.04
121.67
106.94
92.46
77.50
61.40
43.94
25.46
6.74
-11.21
-27.44
-41.37
-52.91
-62.45
-70.48
-77.19
-82.10
-84.10
-81.82
-74.32
-61.63
-44.97
-26.40
-8.19
7.91
20.99
30.89
37.87
42.19
43.98
43.46
41.04
37.48
33.70
30.51
28.27
26.91
25.99
25.08
23.84
22.16
20.04
17.50
14.54
11.10
7.13
2.64
-2.26
-7.38
-12.45
-17.20
-21.46
-25.20
-28.59
-32.01
-35.94
-40.76
-46.45
-52.35
-57.12
-59.09
-56.81
-49.74
-38.57
-25.14
-11.79
-0.66
6.97
10.76
11.10
8.61
3.85
-2.75
-10.73
-19.38
-27.78
-34.95
-40.12
-42.96
-43.69
-42.88
-41.30
-39.71
-38.77
-38.92
-40.41
-43.26
-47.28
-52.18
-57.69
-63.61
-69.84
-76.29
-82.78
-89.09
-95.03
-100.59
-105.99
-111.32
-116.24
-119.66
-119.83
-114.87
-103.63
-86.33
-64.72
-41.56
-19.72
-1.36
12.54
22.05
27.75
30.28
30.10
27.52
23.09
17.67
12.45
8.60
6.90
7.53
9.96
13.28
16.46
18.65
19.37
18.54
16.38
13.30
9.72
5.98
2.28
-1.42
-5.31
-9.70
-14.94
-21.36
-29.12
-37.96
-47.06
-54.96
-59.73
-59.46
-52.85
-39.82
-21.66
-0.81
19.81
37.61
50.91
59.16
62.68
62.30
58.91
53.34
46.33
38.65
31.12
24.50
19.40
16.12
14.66
14.72
15.84
17.43
18.79
19.23
18.16
15.25
10.56
4.51
-2.28
-9.18
-15.81
-22.08
-28.18
-34.48
-41.37
-49.09
-57.54
-66.04
-73.24
-77.27
-76.17
-68.53
-54.18
-34.39
-11.62
11.11
31.15
46.70
57.13
62.67
64.03
62.04
57.49
51.18
43.96
36.72
30.29
25.34
22.23
20.97
21.26
22.48
23.87
24.66
24.19
22.15
18.57
13.80
8.30
2.53
-3.27
-9.02
-14.85
-20.95
-27.59
-35.03
-43.46
-52.78
-62.35
-70.76
-76.01
-75.97
-69.15
-55.32
-35.80
-13.14
9.62
29.74
45.46
56.10
61.86
63.37
61.42
56.79
50.29
42.87
35.55
29.28
24.73
22.15
21.41
22.02
23.40
24.93
26.10
26.51
25.83
23.87
20.58
16.06
10.55
4.38
-2.11
-8.63
-15.01
-21.18
-27.23
-33.41
-39.94
-46.85
-53.63
-59.13
-61.61
-59.20
-50.64
-35.92
-16.46
5.11
25.81
43.12
55.56
62.76
65.19
63.70
59.16
52.47
44.60
36.65
29.75
24.80
22.19
21.78
22.93
24.87
26.88
28.45
29.22
28.94
27.40
24.44
20.11
14.67
8.58
2.38
-3.49
-8.84
-13.79
-18.67
-23.93
-29.93
-36.79
-44.15
-51.03
-55.86
-56.76
-52.12
-41.23
-24.78
-4.78
15.85
34.18
48.02
56.35
59.32
57.83
53.13
46.42
38.72
30.94
23.89
18.18
14.21
12.06
11.46
11.91
12.79
13.49
13.52
12.50
10.20
6.51
1.49
-4.65
-11.53
-18.63
-25.51
-31.85
-37.58
-42.93
-48.30
-54.08
-60.53
-67.53
-74.39
-79.85
-82.15
-79.57
-70.90
-56.08
-36.39
-14.28
7.37
25.95
39.80
48.37
52.03
51.62
48.11
42.44
35.50
28.32
21.95
17.34
15.08
15.15
16.99
19.68
22.26
24.05
24.80
24.54
23.42
21.47
18.51
14.30
8.76
2.13
-5.01
-11.96
-18.22
-23.68
-28.71
-33.90
-39.83
-46.73
-54.25
-61.41
-66.68
-68.24
-64.49
-54.58
-38.87
-18.96
2.62
23.11
40.32
53.00
60.91
64.54
64.51
61.44
55.90
48.68
40.95
34.07
29.28
27.25
27.83
30.17
33.04
35.38
36.52
36.24
34.57
31.51
26.90
20.48
12.02
1.56
-10.54
-23.71
-37.31
-50.83
-64.05
-77.02
-90.08
-103.72
-118.29
-133.86
-149.91
-165.33
-178.52
-187.65
-191.06
-187.67
-177.28
-160.72
-139.61
-116.13
-92.54
-70.87
-52.60
-38.60
-28.97
-23.15
-19.99
-17.93
-15.38
-11.02
-4.19
4.95
15.57
26.45
36.45
44.91
51.72
57.20
61.76
65.61
68.60
70.34
70.54
69.25
66.95
64.44
62.52
61.75
62.41
64.46
67.73
71.94
76.77
81.91
87.17
92.60
98.51
105.33
113.37
122.50
132.05
140.92
147.82
151.62
151.57
147.41
139.36
128.04
114.31
99.15
83.50
68.22
54.01
41.44
30.90
22.68
16.80
12.98
10.67
9.13
7.62
5.55
2.60
-1.32
-6.12
-11.62
-17.55
-23.55
-29.28
-34.41
-38.83
-42.65
-46.23
-50.04
-54.51
-59.78
-65.57
-71.09
-75.12
-76.28
-73.43
-66.08
-54.65
-40.48
-25.40
-11.25
0.54
9.19
14.50
16.64
15.96
12.98
8.36
2.94
-2.36
-6.74
-9.63
-10.81
-10.31
-8.36
-5.36
-1.79
1.79
4.87
7.11
8.45
9.03
9.10
8.85
8.33
7.57
6.59
5.50
4.43
3.46
2.49
1.38
0.04
-1.33
-2.17
-1.67
0.89
5.86
12.94
21.23
29.46
36.32
40.81
42.42
41.19
37.52
32.05
25.49
18.55
11.94
6.22
1.89
-0.77
-1.69
-1.06
0.64
2.80
4.73
5.94
6.20
5.68
4.76
3.88
3.29
2.92
2.51
1.71
0.36
-1.60
-4.12
-7.22
-10.96
-15.28
-19.75
-23.50
-25.44
-24.68
-20.92
-14.71
-7.23
0.11
6.18
10.42
12.82
13.62
13.16
11.64
9.19
6.05
2.59
-0.70
-3.30
-4.83
-5.23
-4.71
-3.69
-2.68
-2.09
-2.17
-2.99
-4.49
-6.59
-9.22
-12.38
-16.10
-20.41
-25.33
-30.79
-36.70
-42.90
-49.21
-55.36
-61.02
-65.75
-68.96
-69.99
-68.30
-63.67
-56.34
-47.15
-37.30
-28.15
-20.87
-16.19
-14.40
-15.51
-19.47
-26.24
-35.74
-47.71
-61.46
-75.88
-89.60
-101.23
-109.74
-114.57
-115.68
-113.43
-108.34
-101.04
-92.21
-82.53
-72.66
-63.21
-54.68
-47.51
-42.23
-39.47
-40.04
-44.60
-53.29
-65.32
-78.75
-90.78
-98.37
-99.10
-91.85
-77.13
-56.76
-33.27
-9.18
13.49
33.33
49.44
61.19
68.23
70.59
68.81
63.99
57.54
50.89
45.15
40.95
38.43
37.32
37.13
37.19
36.78
35.23
32.01
26.88
19.91
11.47
2.16
-7.35
-16.40
-24.58
-31.82
-38.46
-45.11
-52.46
-60.87
-70.15
-79.44
-87.28
-91.85
-91.33
-84.30
-70.17
-49.35
-23.38
5.34
33.96
59.73
80.51
95.01
102.89
104.61
101.19
93.96
84.35
73.63
62.80
52.52
43.20
35.10
28.37
22.98
18.63
14.75
10.68
6.06
1.03
-3.75
-7.46
-9.47
-9.61
-7.99
-4.84
-0.40
4.84
9.78
12.60
11.32
4.81
-6.20
-18.75
-28.39
-30.86
-23.77
-7.66
14.18
37.00
56.24
68.87
73.89
72.03
65.00
54.72
42.88
30.87
19.98
11.53
6.79
6.66
11.30
19.92
30.98
42.68
53.54
62.87
70.69
77.39
83.11
87.43
89.36
87.85
82.31
73.01
61.10
48.24
35.98
25.28
16.27
8.31
0.34
-8.63
-19.09
-30.60
-41.73
-50.25
-53.61
-49.72
-37.65
-18.09
6.73
33.61
59.21
80.93
97.31
108.05
113.54
114.41
111.23
104.48
94.75
82.86
69.87
56.90
44.91
34.59
26.24
19.86
15.16
11.61
8.50
5.06
0.68
-4.86
-11.36
-18.26
-24.98
-31.13
-36.63
-41.72
-46.72
-51.95
-57.59
-63.77
-70.50
-77.73
-85.23
-92.60
-99.30
-104.77
-108.56
-110.22
-109.22
-104.76
-95.77
-81.15
-60.10
-32.33
1.80
41.33
84.76
129.95
174.14
214.05
246.34
268.31
278.64
277.80
267.87
251.91
233.08
213.86
195.73
179.14
163.90
149.55
135.71
122.13
108.71
95.39
82.08
68.77
55.50
42.47
29.94
18.04
6.63
-4.75
-16.68
-29.64
-43.65
-58.28
-72.77
-86.38
-98.63
-109.38
-118.74
-126.84
-133.72
-139.30
-143.61
-146.89
-149.56
-151.84
-153.28
-152.61
-147.88
-137.31
-120.14
-97.26
-71.19
-45.26
-22.48
-4.67
7.87
15.94
20.71
23.08
23.45
22.04
19.24
15.84
12.91
11.35
11.56
13.27
15.72
18.01
19.47
19.83
19.21
17.91
16.20
14.15
11.68
8.70
5.22
1.47
-2.17
-5.37
-7.98
-10.16
-12.19
-14.42
-16.98
-19.79
-22.53
-24.82
-26.31
-26.80
-26.30
-25.00
-23.34
-21.75
-20.55
-19.65
-18.44
-15.93
-11.07
-3.22
7.50
20.09
32.90
44.09
52.17
56.28
56.28
52.60
45.94
37.12
27.08
16.87
7.67
0.54
-3.87
-5.61
-5.36
-4.19
-3.10
-2.67
-2.94
-3.59
-4.32
-5.05
-5.99
-7.44
-9.56
-12.25
-15.18
-18.02
-20.58
-22.96
-25.44
-28.30
-31.56
-34.97
-38.02
-40.27
-41.56
-42.14
-42.67
-43.93
-46.61
-50.92
-56.37
-61.75
-65.28
-65.07
-59.71
-48.83
-33.32
-15.15
3.18
19.44
32.14
40.71
45.28
46.31
44.29
39.73
33.25
25.69
18.04
11.22
5.83
2.00
-0.52
-2.19
-3.43
-4.50
-5.56
-6.74
-8.24
-10.28
-12.98
-16.19
-19.57
-22.66
-25.19
-27.21
-29.08
-31.28
-34.12
-37.62
-41.49
-45.36
-49.00
-52.37
-55.61
-58.90
-62.41
-66.28
-70.63
-75.43
-80.29
-84.23
-85.80
-83.40
-76.00
-63.61
-47.52
-29.84
-12.82
1.91
13.55
22.07
27.77
30.90
31.65
30.29
27.41
23.95
20.94
19.20
19.04
20.20
22.10
24.14
25.93
27.29
28.22
28.62
28.36
27.22
25.09
22.02
18.26
14.06
9.57
4.80
-0.32
-5.84
-11.58
-17.23
-22.46
-27.07
-31.09
-34.72
-38.23
-41.84
-45.72
-49.96
-54.56
-59.25
-63.30
-65.57
-64.65
-59.42
-49.52
-35.70
-19.62
-3.37
11.10
22.48
30.23
34.39
35.31
33.48
29.42
23.78
17.44
11.40
6.64
3.87
3.37
4.89
7.82
11.32
14.64
17.25
19.00
20.02
20.53
20.75
20.69
20.21
19.11
17.25
14.67
11.59
8.32
5.11
2.06
-0.90
-3.96
-7.38
-11.36
-16.01
-21.30
-26.92
-32.29
-36.45
-38.22
-36.51
-30.63
-20.65
-7.55
7.04
21.22
33.31
42.25
47.67
49.73
48.98
46.04
41.54
36.16
30.61
25.60
21.74
19.40
18.54
18.84
19.73
20.61
21.02
20.71
19.61
17.75
15.20
12.00
8.19
3.85
-0.83
-5.60
-10.19
-14.38
-18.06
-21.25
-24.13
-27.00
-30.29
-34.38
-39.42
-45.20
-50.94
-55.35
-56.88
-54.19
-46.64
-34.62
-19.46
-3.14
12.34
25.46
35.32
41.70
44.74
44.76
42.14
37.44
31.51
25.48
20.54
17.61
17.05
18.53
21.25
24.23
26.68
28.17
28.68
28.39
27.42
25.72
23.07
19.20
14.00
7.63
0.46
-7.09
-14.61
-21.89
-28.82
-35.44
-41.86
-48.27
-54.94
-62.01
-69.31
-76.10
-81.15
-82.93
-80.20
-72.49
-60.35
-45.25
-29.11
-13.74
-0.50
9.80
16.90
20.78
21.70
20.05
16.47
11.79
6.93
2.77
-0.07
-1.36
-1.23
-0.07
1.57
3.23
4.62
5.64
6.30
6.61
6.46
5.65
3.94
1.19
-2.53
-6.92
-11.58
-16.14
-20.43
-24.49
-28.57
-32.97
-37.84
-43.07
-48.19
-52.31
-54.27
-52.84
-47.12
-36.83
-22.54
-5.61
12.13
28.75
42.71
52.93
58.98
60.87
59.11
54.53
48.29
41.68
35.93
31.97
30.17
30.39
32.00
34.19
36.20
37.51
37.93
37.45
36.11
33.87
30.56
26.09
20.56
14.37
8.12
2.28
-2.89
-7.59
-12.28
-17.44
-23.31
-29.83
-36.52
-42.59
-47.03
-48.64
-46.21
-38.85
-26.25
-9.05
11.23
32.45
52.47
69.69
83.33
93.43
100.43
104.85
106.99
107.02
105.23
102.27
99.14
96.90
96.21
97.08
98.76
100.12
100.10
98.15
94.26
88.89
82.52
75.49
67.87
59.67
51.01
42.23
33.84
26.35
19.98
14.61
9.73
4.67
-1.17
-8.11
-16.14
-24.81
-33.25
-40.19
-44.21
-44.12
-39.44
-30.66
-19.33
-7.62
2.28
8.83
11.39
10.24
6.26
0.44
-6.32
-13.32
-19.99
-25.80
-30.34
-33.34
-34.78
-34.88
-34.09
-32.95
-32.02
-31.76
-32.53
-34.53
-37.87
-42.56
-48.46
-55.27
-62.51
-69.58
-75.87
-80.94
-84.71
-87.53
-90.09
-93.16
-97.25
-102.21
-107.08
-110.08
-109.12
-102.42
-89.17
-70.08
-47.15
-23.30
-1.49
16.00
28.01
34.49
36.21
34.32
30.09
24.68
19.19
14.58
11.59
10.59
11.45
13.67
16.50
19.17
21.09
21.91
21.46
19.74
16.77
12.67
7.69
2.17
-3.45
-8.78
-13.62
-18.01
-22.19
-26.49
-31.21
-36.52
-42.43
-48.62
-54.35
-58.43
-59.31
-55.54
-46.35
-32.02
-14.07
5.12
23.02
37.51
47.31
52.01
51.91
47.80
40.80
32.27
23.65
16.24
10.95
8.11
7.53
8.67
10.82
13.29
15.48
16.89
17.17
16.15
13.85
10.49
6.26
1.39
-3.92
-9.53
-15.22
-20.77
-25.99
-30.87
-35.59
-40.56
-46.13
-52.35
-58.64
-63.72
-65.85
-63.32
-55.14
-41.49
-23.85
-4.62
13.51
28.29
38.34
43.29
43.54
39.96
33.61
25.59
17.07
9.16
2.85
-1.13
-2.54
-1.66
0.85
4.06
7.08
9.18
9.91
9.08
6.76
3.21
-1.23
-6.19
-11.40
-16.73
-22.18
-27.78
-33.54
-39.41
-45.35
-51.30
-57.06
-62.00
-64.91
-64.17
-58.24
-46.40
-29.29
-9.00
11.51
29.37
42.62
50.51
53.34
51.95
47.23
40.03
31.23
22.00
13.72
7.72
4.87
5.22
8.02
11.92
15.56
17.89
18.43
17.17
14.33
10.21
5.09
-0.77
-7.08
-13.50
-19.82
-26.05
-32.48
-39.53
-47.57
-56.50
-65.62
-73.53
-78.29
-77.96
-71.17
-57.64
-38.45
-15.91
7.06
27.64
43.78
54.53
59.87
60.42
57.10
50.92
42.97
34.47
26.67
20.68
17.22
16.45
17.93
20.75
23.81
26.10
26.91
25.90
23.08
18.70
13.12
6.66
-0.41
-7.88
-15.57
-23.33
-31.07
-38.80
-46.66
-54.82
-63.28
-71.58
-78.66
-82.81
-82.08
-74.88
-60.69
-40.43
-16.42
8.27
30.62
48.46
60.76
67.55
69.44
67.28
62.02
54.70
46.60
39.10
33.43
30.32
29.80
31.24
33.66
36.09
37.82
38.48
37.91
36.02
32.66
27.75
21.31
13.59
5.05
-3.76
-12.31
-20.26
-27.53
-34.30
-40.93
-47.88
-55.45
-63.56
-71.48
-77.76
-80.41
-77.50
-67.83
-51.54
-30.28
-6.79
15.83
35.03
49.34
58.41
62.69
62.97
60.06
54.76
48.10
41.32
35.76
32.48
31.89
33.55
36.39
39.16
40.93
41.33
40.56
39.05
37.06
34.49
30.97
26.11
19.85
12.50
4.75
-2.72
-9.45
-15.36
-20.77
-26.13
-31.88
-38.26
-45.21
-52.26
-58.44
-62.35
-62.33
-57.02
-45.84
-29.40
-9.52
11.25
30.28
45.54
55.87
60.99
61.25
57.43
50.55
41.93
33.04
25.32
19.97
17.58
18.07
20.74
24.55
28.39
31.34
32.87
32.77
31.07
27.90
23.40
17.67
10.91
3.46
-4.17
-11.36
-17.62
-22.80
-27.19
-31.45
-36.37
-42.56
-50.13
-58.51
-66.44
-72.11
-73.54
-69.18
-58.44
-42.06
-22.04
-1.06
18.25
33.99
45.19
51.73
53.92
52.22
47.22
39.79
31.19
22.95
16.53
12.87
12.06
13.50
16.12
18.83
20.88
21.88
21.75
20.53
18.25
14.85
10.24
4.39
-2.47
-9.93
-17.40
-24.32
-30.45
-35.89
-41.12
-46.74
-53.26
-60.89
-69.38
-77.97
-85.42
-90.10
-90.35
-84.86
-73.25
-56.27
-35.77
-14.19
6.05
23.17
36.23
45.03
49.80
50.96
49.06
44.89
39.53
34.35
30.72
29.62
31.29
35.20
40.22
45.07
48.77
50.91
51.63
51.34
50.37
48.79
46.44
43.13
38.88
34.08
29.32
25.12
21.70
18.86
16.11
12.91
8.78
3.49
-2.94
-10.07
-17.00
-22.27
-24.11
-20.96
-12.05
2.13
19.93
38.96
56.92
72.11
83.69
91.47
95.53
96.01
93.16
87.49
79.93
71.76
64.27
58.39
54.51
52.41
51.50
51.03
50.38
49.07
46.88
43.83
40.06
35.76
31.01
25.70
19.53
12.24
3.83
-5.32
-14.45
-22.73
-29.63
-35.16
-39.89
-44.67
-50.29
-57.04
-64.62
-72.08
-78.06
-81.11
-80.06
-74.34
-64.30
-51.09
-36.48
-22.34
-10.27
-1.28
4.22
6.27
5.25
1.75
-3.43
-9.32
-14.90
-19.25
-21.79
-22.40
-21.36
-19.21
-16.61
-14.07
-12.01
-10.62
-10.00
-10.14
-11.00
-12.59
-14.89
-17.90
-21.52
-25.57
-29.77
-33.80
-37.49
-40.92
-44.45
-48.57
-53.55
-59.12
-64.28
-67.40
-66.70
-60.85
-49.62
-34.03
-16.18
1.43
16.55
27.73
34.40
36.74
35.25
30.65
23.76
15.55
7.20
-0.12
-5.42
-8.23
-8.62
-7.13
-4.54
-1.71
0.64
1.92
1.75
-0.06
-3.43
-8.02
-13.36
-18.95
-24.48
-29.83
-35.07
-40.39
-46.00
-52.17
-59.09
-66.79
-74.83
-82.22
-87.28
-88.12
-83.14
-71.70
-54.53
-33.64
-11.77
8.36
24.70
36.20
42.72
44.76
43.12
38.75
32.67
25.96
19.68
14.70
11.59
10.52
11.24
13.20
15.73
18.13
19.84
20.46
19.66
17.26
13.25
7.80
1.29
-5.73
-12.74
-19.43
-25.84
-32.28
-39.25
-47.09
-55.79
-64.88
-73.38
-79.91
-82.87
-80.73
-72.54
-58.24
-38.98
-16.90
5.30
25.11
40.73
51.36
57.11
58.64
56.84
52.60
46.81
40.38
34.28
29.37
26.28
25.19
25.86
27.73
30.10
32.29
33.68
33.78
32.26
28.97
24.07
17.93
11.08
4.01
-3.01
-10.02
-17.22
-24.83
-33.00
-41.67
-50.65
-59.50
-67.48
-73.39
-75.67
-72.80
-63.81
-48.81
-29.20
-7.36
13.97
32.40
46.38
55.31
59.38
59.21
55.63
49.57
42.11
34.49
27.94
23.45
21.56
22.17
24.66
28.07
31.41
33.89
35.10
34.86
33.24
30.32
26.17
20.91
14.68
7.78
0.62
-6.40
-13.00
-19.13
-25.05
-31.18
-37.88
-45.14
-52.32
-58.10
-60.73
-58.51
-50.43
-36.61
-18.44
1.68
21.05
37.34
49.10
55.92
58.15
56.53
51.85
44.94
36.73
28.33
21.04
15.99
13.87
14.61
17.43
21.15
24.57
26.85
27.58
26.79
24.68
21.46
17.26
12.13
6.20
-0.33
-7.10
-13.76
-20.10
-26.18
-32.29
-38.82
-45.96
-53.39
-60.04
-64.23
-64.06
-58.04
-45.74
-28.10
-7.27
13.96
32.89
47.55
56.96
61.08
60.53
56.26
49.38
41.05
32.50
24.90
19.26
16.19
15.77
17.59
20.77
24.28
27.16
28.70
28.52
26.51
22.82
17.69
11.44
4.42
-3.02
-10.54
-17.97
-25.27
-32.59
-40.17
-48.15
-56.41
-64.29
-70.61
-73.72
-71.97
-64.24
-50.40
-31.56
-9.90
11.89
31.27
46.43
56.42
61.22
61.37
57.78
51.53
43.81
35.82
28.70
23.36
20.32
19.64
20.94
23.51
26.51
29.12
30.64
30.53
28.48
24.48
18.75
11.77
4.09
-3.71
-11.21
-18.22
-24.76
-31.08
-37.60
-44.70
-52.63
-61.10
-69.11
-74.97
-76.62
-72.29
-61.24
-44.16
-23.06
-0.70
20.20
37.61
50.46
58.53
62.16
61.90
58.45
52.63
45.54
38.46
32.68
29.12
28.13
29.35
31.88
34.66
36.76
37.72
37.47
36.16
33.90
30.62
26.11
20.24
13.17
5.36
-2.51
-9.84
-16.31
-22.02
-27.35
-32.82
-38.83
-45.51
-52.53
-59.01
-63.56
-64.52
-60.38
-50.39
-34.96
-15.78
4.61
23.51
38.81
49.40
55.18
56.69
54.74
50.15
43.77
36.55
29.61
24.15
21.07
20.69
22.65
25.94
29.34
31.78
32.72
32.15
30.47
28.15
25.40
22.09
17.90
12.58
6.21
-0.73
-7.54
-13.61
-18.73
-23.08
-27.21
-31.69
-36.92
-42.89
-49.11
-54.64
-58.22
-58.45
-54.18
-44.90
-31.04
-14.04
3.96
20.63
34.06
43.13
47.60
47.83
44.52
38.57
31.02
23.14
16.28
11.62
9.78
10.64
13.37
16.78
19.78
21.68
22.29
21.70
20.06
17.46
13.85
9.22
3.72
-2.31
-8.46
-14.35
-19.81
-24.82
-29.53
-34.19
-39.03
-44.30
-50.10
-56.23
-61.92
-65.84
-66.30
-61.86
-51.87
-36.94
-18.83
0.02
17.22
31.06
40.70
46.00
47.25
44.98
39.84
32.77
24.98
17.84
12.58
9.94
10.02
12.23
15.54
18.85
21.26
22.32
21.95
20.37
17.81
14.45
10.34
5.50
0.02
-5.86
-11.86
-17.73
-23.36
-28.81
-34.28
-40.08
-46.47
-53.46
-60.64
-66.98
-70.92
-70.69
-64.91
-53.20
-36.49
-16.90
2.91
20.48
34.16
43.31
48.12
49.18
47.15
42.71
36.57
29.66
23.08
17.95
15.08
14.66
16.27
18.98
21.76
23.81
24.76
24.59
23.46
21.41
18.31
13.97
8.33
1.67
-5.39
-12.11
-17.98
-22.91
-27.25
-31.58
-36.47
-42.25
-48.87
-55.88
-62.39
-67.09
-68.49
-65.18
-56.43
-42.50
-24.81
-5.57
12.79
28.29
39.80
46.98
50.12
49.72
46.37
40.77
33.85
26.73
20.62
16.46
14.68
15.04
16.84
19.17
21.26
22.65
23.18
22.88
21.79
19.83
16.84
12.69
7.41
1.28
-5.22
-11.50
-17.12
-21.88
-25.99
-29.88
-34.10
-39.08
-44.90
-51.19
-57.11
-61.42
-62.67
-59.56
-51.33
-38.17
-21.25
-2.58
15.52
30.91
42.14
48.53
50.18
47.71
42.09
34.52
26.31
18.80
13.09
9.84
9.17
10.67
13.56
16.99
20.16
22.52
23.71
23.54
21.96
18.99
14.76
9.52
3.67
-2.30
-7.89
-12.76
-16.86
-20.46
-24.06
-28.19
-33.20
-39.02
-45.03
-50.12
-52.78
-51.49
-45.12
-33.47
-17.37
1.27
20.05
36.65
49.37
57.43
60.87
60.35
56.77
51.13
44.35
37.34
30.91
25.67
22.03
20.06
19.56
20.04
20.86
21.30
20.66
18.48
14.50
8.80
1.72
-6.25
-14.54
-22.66
-30.21
-37.01
-43.09
-48.70
-54.26
-60.22
-66.87
-74.14
-81.35
-87.19
-89.84
-87.51
-79.01
-64.32
-44.85
-23.13
-2.10
15.70
28.72
36.54
39.65
38.96
35.45
30.04
23.63
17.18
11.66
7.91
6.38
7.02
9.27
12.29
15.18
17.22
17.93
17.16
14.93
11.43
6.90
1.58
-4.22
-10.23
-16.18
-21.95
-27.55
-33.16
-39.14
-45.82
-53.38
-61.51
-69.29
-75.16
-77.23
-73.81
-64.07
-48.44
-28.64
-7.25
13.01
30.00
42.49
50.21
53.48
52.95
49.34
43.52
36.54
29.59
23.82
20.04
18.55
19.05
20.83
23.07
25.06
26.36
26.74
26.13
24.44
21.63
17.64
12.53
6.51
-0.13
-7.04
-13.91
-20.53
-26.82
-32.85
-38.82
-45.02
-51.62
-58.37
-64.43
-68.30
-68.19
-62.64
-51.12
-34.45
-14.70
5.41
23.30
37.19
46.34
50.90
51.47
48.81
43.66
36.86
29.41
22.52
17.31
14.58
14.50
16.64
20.05
23.64
26.50
28.07
28.16
26.87
24.36
20.75
16.11
10.50
4.09
-2.75
-9.60
-16.09
-22.01
-27.48
-32.85
-38.54
-44.81
-51.58
-58.25
-63.65
-66.27
-64.56
-57.52
-45.11
-28.48
-9.78
8.41
23.77
34.71
40.66
41.82
38.96
33.09
25.40
17.15
9.61
3.89
0.64
-0.09
1.19
3.58
6.20
8.39
9.75
10.07
9.20
6.97
3.26
-1.87
-8.17
-15.21
-22.49
-29.64
-36.42
-42.75
-48.66
-54.25
-59.69
-65.11
-70.36
-74.83
-77.30
-76.17
-69.92
-57.83
-40.39
-19.39
2.56
22.79
39.22
50.75
57.11
58.57
55.60
48.85
39.27
28.25
17.57
9.02
3.87
2.49
4.25
7.80
11.62
14.44
15.46
14.30
10.90
5.29
-2.32
-11.50
-21.59
-31.78
-41.31
-49.68
-56.78
-62.83
-68.30
-73.67
-79.35
-85.42
-91.48
-96.42
-98.55
-95.92
-86.97
-71.19
-49.40
-23.68
3.21
28.55
50.23
66.97
78.27
84.22
85.36
82.60
77.19
70.57
64.20
59.28
56.52
56.03
57.32
59.46
61.31
61.84
60.41
56.89
51.66
45.36
38.56
31.62
24.55
17.23
9.59
1.74
-5.97
-13.20
-19.75
-25.70
-31.35
-36.97
-42.50
-47.31
-50.19
-49.64
-44.39
-33.92
-18.76
-0.38
19.12
37.67
53.64
66.10
74.74
79.59
80.77
78.43
72.84
64.67
55.02
45.31
36.89
30.68
26.87
24.97
24.10
23.47
22.63
21.57
20.52
19.61
18.68
17.26
14.78
10.91
5.68
-0.49
-7.00
-13.35
-19.30
-24.87
-30.27
-35.65
-41.01
-46.07
-50.24
-52.65
-52.26
-48.16
-39.79
-27.31
-11.62
5.72
22.82
37.89
49.58
57.14
60.45
59.93
56.37
50.79
44.35
38.15
33.12
29.87
28.60
29.08
30.73
32.80
34.57
35.52
35.44
34.35
32.42
29.80
26.59
22.75
18.24
13.00
7.07
0.51
-6.52
-13.85
-21.31
-28.79
-36.26
-43.55
-50.26
-55.57
-58.29
-57.16
-51.35
-40.89
-26.85
-11.11
4.12
16.92
26.08
31.23
32.58
30.72
26.34
20.22
13.23
6.34
0.47
-3.62
-5.58
-5.50
-3.93
-1.69
0.41
1.65
1.60
0.06
-2.94
-7.22
-12.51
-18.56
-25.19
-32.27
-39.60
-46.92
-53.81
-59.78
-64.42
-67.49
-68.94
-68.79
-66.85
-62.57
-55.12
-43.80
-28.54
-10.23
9.34
27.99
43.77
55.44
62.59
65.47
64.63
60.73
54.52
46.96
39.25
32.74
28.63
27.58
29.59
34.03
39.80
45.70
50.73
54.26
56.06
56.21
54.89
52.18
48.00
42.18
34.65
25.60
15.44
4.71
-6.17
-17.02
-27.93
-39.08
-50.52
-61.95
-72.66
-81.62
-87.69
-89.91
-87.86
-81.79
-72.62
-61.73
-50.66
-40.76
-33.01
-27.93
-25.66
-25.97
-28.30
-31.75
-35.08
-36.95
-36.20
-32.18
-24.93
-15.17
-4.04
7.27
17.83
27.05
34.61
40.37
44.14
45.83
45.43
43.17
39.58
35.31
30.98
27.01
23.55
20.49
17.58
14.51
10.96
6.72
1.80
-3.42
-8.09
-11.13
-11.51
-8.68
-2.83
5.12
13.78
21.68
27.69
31.22
32.16
30.79
27.51
22.79
17.12
11.06
5.24
0.30
-3.21
-5.03
-5.19
-4.03
-2.07
0.17
2.21
3.67
4.23
3.67
1.98
-0.50
-3.00
-4.49
-3.86
-0.31
6.39
15.81
26.88
38.16
48.06
55.22
58.85
58.92
56.35
52.77
50.18
50.42
54.71
63.36
75.78
90.56
105.73
119.02
128.18
131.40
127.73
117.42
101.86
83.20
63.72
45.18
28.50
13.76
0.52
-11.79
-23.63
-35.28
-46.82
-58.27
-69.56
-80.48
-90.72
-99.90
-107.66
-113.86
-118.50
-121.71
-123.66
-124.46
-124.22
-123.05
-121.03
-118.18
-114.20
-108.46
-100.05
-87.99
-71.56
-50.47
-24.98
4.11
35.55
67.64
98.31
125.35
146.68
160.81
167.30
166.91
161.35
152.82
143.21
133.65
124.20
114.12
102.36
88.13
71.35
52.71
33.53
15.37
-0.37
-12.71
-21.36
-26.80
-30.23
-33.38
-37.97
-45.28
-55.70
-68.69
-83.00
-97.13
-109.56
-118.97
-124.11
-123.94
-117.87
-106.17
-90.30
-72.62
-55.87
-42.19
-32.65
-27.22
-25.21
-25.98
-29.23
-34.81
-42.31
-50.65
-58.19
-63.26
-64.78
-62.70
-57.91
-51.80
-45.68
-40.38
-36.26
-33.30
-31.40
-30.50
-30.60
-31.72
-33.83
-36.86
-40.70
-45.26
-50.49
-56.33
-62.54
-68.63
-73.72
-76.65
-76.10
-71.01
-60.91
-46.15
-27.94
-8.07
11.50
29.08
43.49
54.16
60.99
64.22
64.27
61.73
57.38
52.19
47.23
43.50
41.72
42.17
44.64
48.52
53.02
57.32
60.80
63.09
64.00
63.35
60.88
56.26
49.10
39.20
26.62
11.69
-5.09
-23.17
-41.97
-60.74
-78.36
-93.27
-103.58
-107.59
-104.33
-94.02
-78.10
-58.97
-39.24
-21.18
-6.27
4.88
12.25
16.17
17.11
15.65
12.56
8.85
5.63
3.82
3.87
5.65
8.53
11.68
14.34
16.09
16.76
16.41
15.07
12.75
9.36
4.85
-0.73
-7.19
-14.24
-21.54
-28.80
-35.90
-42.87
-49.83
-56.68
-62.80
-66.97
-67.51
-62.88
-52.27
-36.12
-16.12
5.26
25.49
42.62
55.61
64.22
68.67
69.36
66.73
61.37
54.05
45.86
37.96
31.38
26.69
23.89
22.42
21.39
19.88
17.13
12.82
6.96
-0.09
-7.87
-15.93
-23.96
-31.79
-39.37
-46.73
-53.95
-61.13
-68.30
-75.21
-81.14
-84.83
-84.62
-78.92
-66.88
-48.85
-26.53
-2.57
20.16
39.32
53.53
62.48
66.60
66.69
63.63
58.30
51.60
44.53
38.07
33.06
30.04
29.11
29.92
31.71
33.56
34.54
33.94
31.41
26.97
20.94
13.80
6.06
-1.88
-9.75
-17.48
-25.13
-32.92
-41.07
-49.73
-58.64
-66.98
-73.21
-75.41
-71.79
-61.37
-44.59
-23.29
-0.28
21.48
39.70
53.24
61.99
66.54
67.61
65.83
61.73
55.93
49.31
42.96
37.95
34.97
34.13
34.98
36.70
38.39
39.38
39.26
37.91
35.35
31.66
26.98
21.48
15.42
9.09
2.71
-3.65
-10.09
-16.83
-24.12
-31.95
-39.93
-47.10
-52.00
-52.93
-48.47
-38.02
-22.10
-2.47
18.39
37.82
53.72
64.88
71.01
72.50
70.04
64.45
56.58
47.39
37.95
29.38
22.60
18.14
16.04
15.86
16.89
18.37
19.67
20.26
19.79
17.98
14.65
9.85
3.84
-2.84
-9.61
-15.98
-21.82
-27.34
-33.04
-39.47
-46.99
-55.54
-64.49
-72.56
-78.06
-79.23
-74.75
-64.28
-48.71
-29.97
-10.57
7.18
21.63
32.03
38.39
41.11
40.72
37.84
33.25
27.96
23.09
19.65
18.25
18.87
21.01
23.88
26.70
28.91
30.16
30.29
29.20
26.87
23.35
18.80
13.47
7.59
1.38
-5.00
-11.49
-18.07
-24.77
-31.65
-38.75
-45.90
-52.57
-57.74
-60.01
-58.01
-50.95
-39.08
-23.78
-7.25
8.12
20.45
28.78
33.05
33.82
31.87
27.92
22.60
16.58
10.66
5.71
2.52
1.54
2.78
5.86
10.19
15.13
20.20
24.96
28.98
31.82
32.98
32.04
28.86
23.61
16.74
8.82
0.42
-8.14
-16.75
-25.44
-34.19
-42.70
-50.28
-55.86
-58.23
-56.36
-49.80
-38.95
-24.99
-9.64
5.28
18.24
28.27
34.93
38.18
38.28
35.66
30.90
24.84
18.44
12.75
8.66
6.65
6.67
8.21
10.46
12.55
13.79
13.83
12.62
10.34
7.25
3.62
-0.34
-4.46
-8.64
-12.84
-17.16
-21.74
-26.76
-32.22
-37.86
-42.98
-46.51
-47.23
-44.14
-36.82
-25.69
-11.93
2.76
16.65
28.35
37.05
42.50
44.90
44.59
42.03
37.69
32.14
26.10
20.43
15.91
13.13
12.24
12.94
14.59
16.42
17.80
18.34
17.91
16.52
14.22
11.06
7.06
2.33
-2.95
-8.56
-14.34
-20.23
-26.29
-32.62
-39.16
-45.51
-50.82
-53.89
-53.43
-48.52
-39.01
-25.68
-10.17
5.52
19.51
30.43
37.65
41.08
41.03
37.98
32.58
25.66
18.26
11.47
6.26
3.21
2.36
3.25
5.17
7.33
9.16
10.31
10.63
10.12
8.77
6.58
3.57
-0.21
-4.65
-9.56
-14.77
-20.15
-25.65
-31.30
-37.15
-42.98
-48.24
-51.97
-52.96
-50.13
-42.94
-31.68
-17.53
-2.25
12.26
24.35
32.93
37.54
38.24
35.57
30.34
23.57
16.36
9.77
4.65
1.56
0.67
1.73
4.16
7.17
9.90
11.68
12.13
11.27
9.34
6.72
3.70
0.37
-3.29
-7.42
-12.05
-17.20
-22.81
-28.86
-35.27
-41.76
-47.69
-51.98
-53.32
-50.58
-43.27
-31.86
-17.71
-2.77
11.02
22.16
29.85
33.91
34.55
32.19
27.30
20.51
12.58
4.46
-2.90
-8.69
-12.44
-14.09
-14.01
-12.83
-11.37
-10.39
-10.50
-12.06
-15.07
-19.25
-24.13
-29.18
-33.94
-38.11
-41.58
-44.47
-47.06
-49.74
-52.86
-56.45
-60.10
-62.85
-63.39
-60.47
-53.40
-42.32
-28.24
-12.77
2.38
15.85
26.81
35.01
40.57
43.75
44.93
44.55
43.18
41.48
40.16
39.81
40.67
42.63
45.16
47.54
49.03
49.15
47.76
44.98
41.09
36.31
30.75
24.36
17.14
9.17
0.73
-7.82
-16.15
-24.07
-31.54
-38.46
-44.54
-49.06
-50.94
-49.03
-42.53
-31.45
-16.79
-0.32
15.79
29.68
40.10
46.56
49.22
48.53
45.09
39.61
32.98
26.30
20.68
17.02
15.74
16.61
18.92
21.73
24.20
25.77
26.22
25.54
23.82
21.09
17.40
12.79
7.40
1.50
-4.64
-10.74
-16.72
-22.63
-28.59
-34.58
-40.24
-44.73
-46.86
-45.40
-39.56
-29.42
-15.98
-0.98
13.57
25.88
34.77
39.75
40.89
38.64
33.70
26.97
19.52
12.49
6.89
3.44
2.34
3.30
5.64
8.50
11.05
12.63
12.88
11.71
9.29
5.92
1.96
-2.24
-6.51
-10.83
-15.34
-20.29
-25.89
-32.21
-38.95
-45.44
-50.54
-52.89
-51.19
-44.69
-33.47
-18.65
-2.15
13.82
27.27
36.88
42.12
43.15
40.50
34.93
27.36
18.90
10.77
4.17
-0.02
-1.50
-0.61
1.78
4.59
6.81
7.82
7.38
5.61
2.80
-0.70
-4.59
-8.69
-12.90
-17.21
-21.72
-26.62
-32.15
-38.39
-45.15
-51.77
-57.05
-59.47
-57.58
-50.45
-38.16
-21.82
-3.43
14.64
30.23
41.87
48.93
51.58
50.43
46.30
40.06
32.58
24.78
17.64
12.06
8.63
7.49
8.25
10.07
11.99
13.11
12.80
10.79
7.09
1.91
-4.37
-11.31
-18.47
-25.48
-32.09
-38.22
-43.97
-49.58
-55.34
-61.48
-67.94
-74.18
-79.10
-81.11
-78.59
-70.36
-56.24
-37.33
-15.67
6.23
26.19
42.85
55.83
65.63
73.31
80.13
87.36
96.02
106.72
119.48
133.63
147.92
160.74
170.54
176.11
176.92
173.28
166.24
157.40
148.45
140.65
134.41
129.16
123.66
116.46
106.53
93.53
77.79
60.02
40.96
21.18
1.08
-18.92
-38.05
-55.15
-68.77
-77.45
-80.14
-76.54
-67.43
-54.58
-40.43
-27.56
-18.12
-13.32
-13.37
-17.63
-24.89
-33.80
-43.04
-51.47
-58.13
-62.32
-63.63
-62.13
-58.40
-53.42
-48.32
-43.97
-40.85
-38.93
-37.83
-37.11
-36.45
-35.77
-35.22
-35.06
-35.56
-36.91
-39.27
-42.70
-47.22
-52.82
-59.39
-66.70
-74.31
-81.45
-87.02
-89.70
-88.31
-82.25
-71.80
-58.25
-43.51
-29.62
-18.22
-10.18
-5.61
-4.11
-5.04
-7.79
-11.77
-16.34
-20.74
-24.19
-26.00
-25.88
-23.90
-20.63
-16.86
-13.45
-11.06
-10.08
-10.58
-12.41
-15.27
-18.85
-22.87
-27.09
-31.40
-35.75
-40.22
-44.95
-50.06
-55.60
-61.49
-67.39
-72.66
-76.34
-77.28
-74.41
-67.16
-55.78
-41.39
-25.80
-11.02
1.32
10.34
16.00
18.93
20.01
20.01
19.45
18.56
17.47
16.36
15.49
15.11
15.37
16.16
17.15
17.90
18.07
17.52
16.26
14.30
11.56
7.82
2.97
-2.87
-9.29
-15.69
-21.63
-27.11
-32.56
-38.67
-45.85
-53.82
-61.32
-66.17
-65.84
-58.11
-41.87
-17.65
12.37
44.82
76.02
102.94
123.84
138.42
147.41
151.98
153.17
151.66
147.89
142.31
135.54
128.29
121.20
114.52
108.09
101.46
94.14
85.80
76.36
65.90
54.53
42.37
29.51
16.08
2.29
-11.54
-25.06
-37.89
-49.79
-60.65
-70.57
-79.67
-88.00
-95.16
-100.16
-101.42
-97.20
-86.25
-68.52
-45.46
-19.83
5.04
26.22
41.87
51.47
55.60
55.35
51.89
46.21
39.13
31.43
23.91
17.35
12.35
9.14
7.54
6.99
6.70
5.93
4.10
1.00
-3.28
-8.40
-13.96
-19.66
-25.40
-31.23
-37.27
-43.64
-50.41
-57.69
-65.56
-73.98
-82.48
-89.98
-94.83
-95.09
-89.23
-76.65
-58.08
-35.36
-10.95
12.78
33.88
51.04
63.39
70.36
71.71
67.68
59.14
47.53
34.60
21.95
10.75
1.63
-5.24
-9.93
-12.73
-14.06
-14.59
-15.11
-16.43
-19.06
-23.11
-28.24
-33.84
-39.29
-44.20
-48.50
-52.53
-56.92
-62.43
-69.49
-77.86
-86.28
-92.53
-93.90
-88.09
-74.12
-52.81
-26.67
0.72
25.76
45.65
58.87
65.20
65.38
60.76
52.93
43.57
34.23
26.24
20.48
17.28
16.32
16.81
17.68
17.91
16.87
14.43
10.91
6.92
3.03
-0.41
-3.37
-6.08
-8.95
-12.35
-16.58
-21.70
-27.41
-33.01
-37.35
-38.97
-36.47
-28.92
-16.36
0.14
18.53
36.41
51.56
62.45
68.49
69.85
67.17
61.25
52.84
42.64
31.36
19.76
8.65
-1.16
-8.98
-14.46
-17.64
-18.96
-19.20
-19.17
-19.47
-20.33
-21.60
-22.98
-24.30
-25.66
-27.40
-29.95
-33.67
-38.78
-45.34
-53.23
-61.89
-70.18
-76.19
-77.69
-72.71
-60.35
-41.34
-17.87
6.95
30.10
49.36
63.62
72.68
76.83
76.56
72.37
64.98
55.44
45.13
35.50
27.79
22.59
19.78
18.65
18.21
17.48
15.80
12.93
8.99
4.34
-0.62
-5.63
-10.65
-15.88
-21.72
-28.61
-36.89
-46.58
-57.08
-67.08
-74.55
-77.17
-73.04
-61.37
-42.97
-20.17
3.94
26.28
44.62
57.88
65.91
69.08
67.95
63.11
55.36
45.82
35.89
26.99
20.20
15.95
13.97
13.45
13.40
12.96
11.66
9.40
6.38
2.85
-1.02
-5.25
-10.00
-15.49
-21.88
-29.21
-37.29
-45.63
-53.35
-59.18
-61.58
-59.12
-50.95
-37.20
-19.15
1.09
21.09
38.80
52.85
62.72
68.45
70.35
68.81
64.31
57.53
49.37
40.96
33.34
27.27
22.97
20.16
18.18
16.30
13.98
11.06
7.77
4.62
2.18
0.83
0.57
0.91
0.98
-0.36
-4.16
-11.13
-21.20
-33.34
-45.54
-55.11
-59.41
-56.56
-46.14
-29.36
-8.68
12.89
32.61
48.45
59.26
64.59
64.47
59.37
50.21
38.47
26.03
14.81
6.34
1.33
-0.49
-0.14
0.97
1.59
0.90
-1.29
-4.73
-8.96
-13.58
-18.45
-23.59
-29.19
-35.43
-42.43
-50.12
-58.09
-65.42
-70.63
-71.88
-67.47
-56.50
-39.39
-17.96
4.99
26.42
43.83
55.66
61.39
61.36
56.47
48.00
37.47
26.46
16.45
8.55
3.33
0.74
0.25
0.96
1.95
2.45
2.09
0.91
-0.66
-2.10
-3.09
-3.72
-4.56
-6.47
-10.26
-16.31
-24.26
-32.87
-40.10
-43.56
-41.12
-31.61
-15.39
5.58
28.14
48.81
64.73
74.24
77.10
74.11
66.64
56.07
43.68
30.63
18.03
6.96
-1.69
-7.46
-10.48
-11.46
-11.40
-11.30
-11.81
-13.08
-14.87
-16.77
-18.45
-19.84
-21.07
-22.35
-23.83
-25.54
-27.45
-29.49
-31.49
-33.02
-33.32
-31.35
-26.14
-17.21
-5.04
9.00
22.96
34.89
43.36
47.74
48.05
44.69
38.07
28.69
17.27
4.98
-6.54
-15.53
-20.63
-21.42
-18.56
-13.59
-8.36
-4.42
-2.63
-3.09
-5.38
-8.82
-12.85
-17.20
-22.03
-27.89
-35.47
-45.08
-56.13
-66.84
-74.45
-76.03
-69.51
-54.59
-32.95
-7.83
16.91
37.81
52.47
59.84
60.19
54.92
46.24
36.74
28.71
23.57
21.46
21.46
22.15
22.39
21.78
20.72
20.00
20.28
21.68
23.81
25.97
27.42
27.63
26.31
23.43
19.11
13.63
7.40
1.09
-4.35
-7.69
-7.70
-3.57
4.62
15.65
27.32
37.06
42.68
43.01
38.13
29.14
17.76
5.71
-5.55
-15.05
-22.29
-27.08
-29.53
-29.92
-28.69
-26.47
-24.06
-22.33
-22.01
-23.49
-26.69
-31.17
-36.36
-41.89
-47.66
-53.77
-60.25
-66.71
-72.24
-75.54
-75.27
-70.45
-60.84
-46.98
-30.13
-12.03
5.32
19.93
30.12
34.85
34.03
28.62
20.47
11.86
4.84
0.66
-0.49
0.66
2.85
4.95
6.28
6.85
7.09
7.54
8.43
9.48
10.03
9.23
6.37
1.18
-6.04
-14.32
-22.17
-27.77
-29.42
-25.93
-17.07
-3.68
12.51
29.25
44.36
56.04
63.13
65.05
61.86
54.19
43.31
30.92
18.93
8.96
1.91
-2.20
-4.19
-5.24
-6.42
-8.39
-11.23
-14.64
-18.22
-21.72
-25.21
-29.13
-34.10
-40.74
-49.31
-59.45
-69.91
-78.66
-83.22
-81.39
-71.99
-55.34
-33.29
-8.61
15.78
37.60
55.50
69.00
78.00
82.45
82.25
77.56
69.04
58.11
46.60
36.30
28.40
23.07
19.62
16.90
13.83
9.81
4.87
-0.55
-5.98
-11.20
-16.38
-21.98
-28.59
-36.65
-46.34
-57.39
-68.96
-79.53
-86.99
-89.04
-83.85
-70.77
-50.79
-26.39
-0.84
22.76
42.33
57.13
67.46
74.04
77.41
77.79
75.19
69.86
62.52
54.35
46.61
40.31
35.86
33.09
31.41
30.10
28.50
26.18
22.86
18.43
12.92
6.47
-0.67
-8.19
-15.80
-23.23
-30.46
-37.64
-45.22
-53.70
-63.29
-73.49
-82.83
-88.96
-89.32
-81.98
-66.49
-44.15
-17.71
9.45
34.38
55.19
71.26
82.84
90.52
94.76
95.76
93.66
88.88
82.29
75.19
68.89
64.37
61.86
60.88
60.55
60.00
58.73
56.72
54.24
51.55
48.73
45.58
41.74
36.87
30.86
23.86
16.29
8.70
1.61
-4.57
-9.74
-14.07
-18.01
-22.09
-26.73
-32.06
-37.86
-43.61
-48.76
-52.97
-56.28
-59.13
-62.25
-66.43
-72.31
-80.18
-89.76
-100.13
-109.57
-115.85
-116.56
-109.89
-95.27
-73.73
-47.71
-20.39
5.21
27.04
44.30
57.19
66.39
72.46
75.68
76.08
73.84
69.55
64.29
59.30
55.64
53.78
53.49
54.09
54.71
54.77
54.02
52.55
50.52
48.03
44.98
41.21
36.63
31.32
25.55
19.69
14.07
8.88
4.14
-0.23
-4.39
-8.43
-12.44
-16.50
-20.71
-25.16
-29.88
-34.79
-39.67
-44.30
-48.52
-52.37
-56.05
-59.95
-64.51
-70.11
-76.84
-84.32
-91.53
-96.76
-97.97
-93.37
-82.10
-64.69
-43.05
-19.93
1.94
20.63
35.36
46.30
54.06
59.20
61.97
62.46
60.87
57.72
53.87
50.29
47.67
46.28
45.86
45.88
45.79
45.32
44.46
43.34
42.06
40.46
38.26
35.15
31.01
26.11
20.96
16.13
11.98
8.55
5.50
2.38
-1.20
-5.30
-9.70
-13.93
-17.56
-20.36
-22.52
-24.53
-27.04
-30.54
-35.09
-40.30
-45.50
-50.02
-53.57
-56.31
-58.79
-61.71
-65.70
-71.07
-77.74
-85.07
-91.79
-96.15
-96.18
-90.32
-78.04
-60.23
-39.04
-17.25
2.60
18.94
31.36
40.29
46.45
50.35
52.14
51.88
49.76
46.36
42.56
39.33
37.35
36.84
37.55
38.91
40.28
41.14
41.18
40.38
38.87
36.84
34.36
31.41
27.86
23.64
18.82
13.66
8.57
3.91
-0.09
-3.44
-6.36
-9.18
-12.21
-15.65
-19.54
-23.75
-28.01
-32.01
-35.55
-38.57
-41.25
-43.87
-46.81
-50.39
-54.86
-60.35
-66.79
-73.73
-80.15
-84.48
-84.87
-79.79
-68.69
-52.33
-32.71
-12.41
6.18
21.59
33.36
41.80
47.47
50.80
52.00
51.23
48.87
45.63
42.43
40.11
39.15
39.55
40.85
42.39
43.54
43.89
43.33
41.98
40.02
37.62
34.80
31.52
27.75
23.56
19.11
14.59
10.14
5.76
1.37
-3.08
-7.55
-11.92
-16.06
-19.97
-23.80
-27.72
-31.89
-36.24
-40.60
-44.72
-48.46
-51.87
-55.19
-58.80
-63.08
-68.31
-74.56
-81.48
-88.11
-92.92
-94.00
-89.66
-79.08
-62.73
-42.40
-20.65
-0.04
17.60
31.44
41.55
48.43
52.60
54.39
54.06
52.04
48.99
45.85
43.49
42.47
42.87
44.26
45.96
47.31
47.90
47.61
46.63
45.20
43.52
41.55
39.12
35.95
31.85
26.81
21.10
15.16
9.52
4.64
0.69
-2.50
-5.41
-8.66
-12.71
-17.64
-23.11
-28.50
-33.25
-37.07
-40.16
-43.06
-46.46
-50.94
-56.83
-64.13
-72.43
-80.88
-88.06
-92.17
-91.31
-84.10
-70.27
-50.99
-28.59
-6.00
14.18
30.37
42.16
50.04
54.87
57.31
57.71
56.28
53.36
49.67
46.21
43.93
43.36
44.39
46.38
48.49
50.01
50.56
50.14
48.95
47.22
45.09
42.59
39.62
36.05
31.78
26.84
21.36
15.68
10.18
5.20
0.92
-2.74
-6.07
-9.49
-13.35
-17.85
-22.92
-28.26
-33.48
-38.19
-42.25
-45.77
-49.13
-52.90
-57.61
-63.56
-70.64
-78.11
-84.58
-88.24
-87.19
-80.10
-66.64
-47.81
-25.74
-3.08
17.63
34.65
47.20
55.36
59.71
60.93
59.71
56.67
52.52
48.07
44.20
41.67
40.84
41.65
43.58
45.84
47.67
48.55
48.29
47.01
44.96
42.30
39.00
34.89
29.82
23.88
17.52
11.36
6.00
1.67
-1.89
-5.27
-9.10
-13.69
-18.90
-24.19
-28.98
-32.88
-35.88
-38.37
-40.97
-44.33
-48.90
-54.83
-61.79
-68.89
-74.61
-77.13
-74.66
-66.07
-51.41
-32.04
-10.37
10.76
28.91
42.59
51.45
56.00
57.11
55.61
52.12
47.16
41.41
35.76
31.22
28.55
28.00
29.19
31.30
33.41
34.87
35.40
35.04
33.88
31.95
29.16
25.45
20.90
15.84
10.72
5.99
1.86
-1.73
-5.11
-8.70
-12.76
-17.28
-21.98
-26.39
-30.18
-33.25
-35.87
-38.61
-42.13
-46.87
-52.76
-59.01
-64.19
-66.42
-63.93
-55.62
-41.61
-23.32
-3.17
16.10
32.18
43.69
50.34
52.60
51.33
47.36
41.47
34.44
27.22
20.90
16.52
14.68
15.37
17.86
20.96
23.52
24.73
24.40
22.84
20.61
18.13
15.51
12.53
8.80
4.05
-1.68
-8.01
-14.33
-20.05
-24.76
-28.39
-31.15
-33.51
-36.03
-39.28
-43.69
-49.36
-55.95
-62.49
-67.45
-69.04
-65.64
-56.43
-41.78
-23.30
-3.40
15.39
31.02
42.38
49.25
52.06
51.47
48.18
42.90
36.44
29.77
23.92
19.82
17.96
18.26
20.04
22.28
23.99
24.57
23.97
22.59
20.97
19.36
17.58
15.12
11.43
6.24
-0.15
-7.08
-13.76
-19.59
-24.40
-28.40
-32.13
-36.23
-41.26
-47.47
-54.63
-61.82
-67.51
-69.85
-67.18
-58.62
-44.46
-26.19
-6.07
13.39
30.13
42.83
50.98
54.69
54.38
50.72
44.51
36.81
28.88
21.97
17.08
14.62
14.31
15.34
16.76
17.80
18.18
17.96
17.35
16.41
14.93
12.49
8.71
3.57
-2.55
-8.97
-14.95
-19.98
-24.02
-27.42
-30.86
-35.02
-40.38
-47.00
-54.36
-61.30
-66.15
-67.03
-62.36
-51.51
-35.07
-14.96
6.10
25.29
40.44
50.41
55.11
55.16
51.52
45.22
37.31
28.93
21.30
15.52
12.25
11.52
12.70
14.80
16.82
18.13
18.52
18.11
17.03
15.29
12.67
8.96
4.11
-1.64
-7.82
-13.84
-19.28
-23.95
-28.00
-31.81
-35.91
-40.86
-46.98
-54.07
-61.21
-66.67
-68.28
-64.09
-53.18
-36.18
-15.29
6.39
25.75
40.58
49.90
53.92
53.52
49.77
43.71
36.29
28.50
21.39
15.95
12.84
12.13
13.35
15.58
17.83
19.33
19.73
19.03
17.46
15.15
12.15
8.38
3.82
-1.38
-6.87
-12.21
-17.10
-21.49
-25.72
-30.35
-35.95
-42.69
-50.08
-56.78
-60.90
-60.44
-54.02
-41.45
-23.97
-3.95
15.79
32.68
45.01
52.11
54.15
51.86
46.19
38.21
29.10
20.13
12.53
7.26
4.80
4.99
7.14
10.22
13.14
15.01
15.27
13.76
10.66
6.41
1.55
-3.40
-8.12
-12.47
-16.55
-20.60
-24.97
-29.98
-35.92
-42.81
-50.18
-56.88
-61.16
-61.04
-54.98
-42.56
-24.86
-4.28
16.11
33.45
45.81
52.51
53.97
51.24
45.61
38.25
30.15
22.21
15.26
10.01
6.95
6.16
7.21
9.29
11.37
12.53
12.18
10.15
6.59
1.89
-3.49
-9.15
-14.76
-20.10
-25.11
-29.95
-34.99
-40.77
-47.75
-56.01
-64.90
-72.93
-77.96
-77.80
-70.92
-57.09
-37.63
-15.09
7.45
27.23
42.44
52.40
57.40
58.23
55.83
51.04
44.65
37.45
30.30
24.13
19.76
17.66
17.75
19.44
21.71
23.45
23.79
22.33
19.14
14.68
9.51
4.07
-1.41
-6.91
-12.50
-18.30
-24.42
-30.99
-38.18
-46.10
-54.51
-62.56
-68.65
-70.62
-66.52
-55.30
-37.50
-15.28
8.19
29.66
46.74
58.33
64.57
66.31
64.60
60.40
54.52
47.77
41.01
35.07
30.57
27.81
26.65
26.61
27.09
27.47
27.30
26.29
24.32
21.35
17.37
12.47
6.77
0.53
-5.90
-12.18
-18.09
-23.65
-29.18
-35.17
-42.08
-49.97
-58.20
-65.28
-69.12
-67.64
-59.50
-44.80
-25.16
-3.41
17.33
34.54
46.81
53.94
56.58
55.62
52.00
46.53
40.02
33.42
27.70
23.63
21.59
21.38
22.40
23.86
25.05
25.54
25.12
23.74
21.37
17.95
13.52
8.22
2.39
-3.55
-9.21
-14.39
-19.10
-23.59
-28.24
-33.43
-39.44
-46.22
-53.19
-59.13
-62.26
-60.77
-53.44
-40.19
-22.33
-2.28
17.11
33.39
45.02
51.55
53.33
51.19
46.13
39.20
31.53
24.24
18.35
14.53
12.95
13.28
14.79
16.65
18.13
18.73
18.19
16.45
13.57
9.72
5.16
0.20
-4.85
-9.76
-14.41
-18.82
-23.14
-27.59
-32.50
-38.19
-44.81
-52.10
-59.16
-64.39
-65.86
-61.87
-51.68
-35.95
-16.64
3.41
21.44
35.39
44.33
48.36
48.23
44.96
39.55
32.91
25.95
19.58
14.66
11.82
11.25
12.65
15.26
18.08
20.16
20.84
19.84
17.23
13.27
8.32
2.75
-3.09
-8.85
-14.21
-19.01
-23.32
-27.46
-31.91
-37.16
-43.56
-51.02
-58.86
-65.69
-69.62
-68.69
-61.56
-48.13
-29.74
-8.98
11.11
27.96
40.07
47.22
50.06
49.59
46.69
42.03
36.20
29.98
24.28
20.02
17.71
17.31
18.21
19.55
20.54
20.75
20.05
18.49
16.03
12.56
7.93
2.15
-4.46
-11.33
-17.83
-23.50
-28.20
-32.18
-35.98
-40.25
-45.56
-52.08
-59.33
-65.99
-70.15
-69.70
-63.15
-50.20
-32.04
-11.03
10.00
28.53
43.02
52.95
58.61
60.67
59.79
56.54
51.52
45.46
39.31
34.09
30.60
29.14
29.42
30.66
31.89
32.36
31.76
30.25
28.18
25.80
23.02
19.47
14.69
8.47
1.06
-6.85
-14.39
-20.81
-25.81
-29.64
-32.99
-36.78
-41.84
-48.57
-56.75
-65.34
-72.63
-76.53
-75.16
-67.42
-53.50
-34.91
-14.14
6.11
23.63
37.13
46.31
51.52
53.30
52.15
48.53
43.02
36.56
30.38
25.72
23.44
23.67
25.78
28.62
30.98
32.00
31.43
29.58
27.02
24.22
21.25
17.80
13.37
7.68
0.90
-6.30
-12.99
-18.47
-22.55
-25.65
-28.56
-32.08
-36.69
-42.47
-49.14
-56.12
-62.52
-67.04
-68.11
-64.21
-54.52
-39.36
-20.42
-0.29
18.29
33.22
43.48
49.02
50.40
48.38
43.70
37.21
29.96
23.16
18.01
15.27
15.02
16.68
19.23
21.62
23.17
23.65
23.21
22.11
20.53
18.40
15.50
11.57
6.56
0.71
-5.47
-11.36
-16.48
-20.63
-23.98
-26.96
-30.09
-33.88
-38.64
-44.40
-50.76
-56.74
-60.80
-61.19
-56.43
-45.98
-30.55
-12.11
6.71
23.39
36.14
44.27
47.93
47.82
44.71
39.35
32.51
25.06
18.07
12.59
9.42
8.79
10.30
12.99
15.70
17.49
17.86
16.87
14.90
12.29
9.18
5.45
0.93
-4.35
-10.00
-15.43
-20.11
-23.87
-26.99
-30.11
-33.95
-38.96
-45.23
-52.35
-59.42
-65.10
-67.78
-65.87
-58.32
-45.11
-27.44
-7.54
11.89
28.49
40.74
48.15
51.04
50.17
46.38
40.59
33.74
26.84
20.92
16.79
14.83
14.92
16.47
18.64
20.62
21.78
21.79
20.59
18.24
14.89
10.64
5.59
-0.15
-6.31
-12.52
-18.35
-23.52
-27.98
-32.05
-36.28
-41.31
-47.49
-54.69
-62.05
-68.03
-70.71
-68.30
-59.75
-45.21
-26.17
-5.07
15.30
32.58
45.28
52.93
55.87
54.84
50.73
44.52
37.25
30.09
24.15
20.32
18.90
19.61
21.63
23.94
25.70
26.45
26.10
24.80
22.70
19.78
15.94
11.09
5.32
-0.98
-7.28
-13.02
-17.92
-22.05
-25.91
-30.15
-35.39
-41.92
-49.50
-57.25
-63.70
-67.00
-65.48
-58.08
-44.85
-27.09
-7.06
12.62
29.63
42.52
50.77
54.61
54.66
51.63
46.27
39.44
32.19
25.70
20.97
18.61
18.54
20.12
22.31
24.14
24.99
24.67
23.39
21.43
18.91
15.78
11.86
7.05
1.53
-4.32
-9.99
-15.13
-19.63
-23.68
-27.69
-32.12
-37.34
-43.43
-49.97
-55.97
-59.91
-60.07
-55.07
-44.42
-28.86
-10.30
8.70
25.59
38.48
46.46
49.59
48.57
44.43
38.27
31.15
24.05
17.90
13.47
11.22
11.14
12.79
15.35
17.90
19.70
20.31
19.61
17.72
14.85
11.16
6.79
1.92
-3.25
-8.42
-13.32
-17.80
-21.90
-25.84
-30.00
-34.73
-40.14
-45.88
-50.99
-53.98
-53.23
-47.50
-36.49
-21.11
-3.31
14.38
29.53
40.42
46.28
47.27
44.17
38.07
30.11
21.41
13.03
5.96
1.03
-1.28
-1.00
1.32
4.70
7.99
10.21
10.76
9.55
6.84
3.09
-1.28
-5.93
-10.65
-15.28
-19.68
-23.83
-27.87
-32.16
-37.18
-43.21
-50.03
-56.68
-61.55
-62.69
-58.52
-48.44
-33.14
-14.56
4.74
22.20
35.93
44.92
49.04
48.74
44.82
38.27
30.19
21.82
14.36
8.82
5.72
5.10
6.47
9.04
11.87
14.15
15.20
14.66
12.45
8.77
4.06
-1.18
-6.52
-11.68
-16.59
-21.36
-26.22
-31.46
-37.37
-44.12
-51.53
-58.83
-64.57
-66.84
-63.74
-54.20
-38.53
-18.54
2.84
22.49
38.00
48.21
53.21
53.93
51.47
46.82
40.68
33.68
26.60
20.37
15.92
13.77
13.92
15.70
18.10
20.11
20.95
20.27
18.07
14.58
10.14
5.11
-0.20
-5.52
-10.69
-15.67
-20.53
-25.47
-30.76
-36.67
-43.28
-50.26
-56.69
-61.01
-61.37
-56.18
-44.85
-28.17
-8.32
11.81
29.43
42.66
50.83
54.30
53.93
50.66
45.25
38.40
30.96
23.93
18.37
15.09
14.30
15.57
18.02
20.60
22.50
23.28
22.86
21.37
18.89
15.42
10.96
5.55
-0.54
-6.84
-12.84
-18.18
-22.79
-27.04
-31.51
-36.76
-42.89
-49.24
-54.43
-56.58
-54.00
-45.74
-32.13
-14.73
4.06
21.68
36.10
46.11
51.39
52.22
49.30
43.49
35.85
27.62
20.05
14.29
11.03
10.36
11.76
14.33
17.10
19.25
20.29
20.06
18.63
16.15
12.84
8.85
4.33
-0.56
-5.68
-10.85
-15.91
-20.76
-25.41
-29.99
-34.74
-39.79
-45.02
-49.76
-52.86
-52.82
-48.34
-38.88
-24.98
-8.32
8.72
23.75
34.99
41.60
43.62
41.69
36.66
29.49
21.18
12.85
5.70
0.73
-1.48
-1.07
1.24
4.33
7.12
8.84
9.12
7.96
5.56
2.21
-1.80
-6.16
-10.61
-15.00
-19.32
-23.74
-28.56
-34.06
-40.35
-47.17
-53.78
-58.90
-60.91
-58.24
-49.87
-35.88
-17.57
2.73
22.35
38.93
51.05
58.22
60.77
59.42
55.02
48.49
40.79
32.98
26.07
20.80
17.50
15.97
15.66
15.82
15.75
14.92
13.02
10.01
6.01
1.25
-3.96
-9.37
-14.78
-20.12
-25.38
-30.66
-36.11
-41.95
-48.32
-55.18
-62.02
-67.74
-70.80
-69.62
-63.13
-51.25
-35.05
-16.50
2.14
18.81
32.06
41.08
45.71
46.19
43.20
37.71
30.86
23.80
17.42
12.32
8.87
7.34
7.98
10.96
16.20
23.19
31.01
38.58
44.99
49.72
52.79
54.46
55.03
54.57
52.97
50.02
45.66
39.98
33.16
25.35
16.67
7.42
-1.65
-9.30
-14.03
-14.60
-10.63
-2.85
7.08
17.01
24.93
29.40
29.68
25.64
17.59
6.18
-7.62
-22.54
-37.14
-50.07
-60.42
-67.84
-72.60
-75.28
-76.43
-76.16
-74.17
-69.90
-63.04
-53.92
-43.62
-33.67
-25.49
-19.83
-16.43
-14.06
-10.88
-4.97
5.28
20.83
41.55
65.95
91.02
112.77
127.50
133.38
131.48
125.45
119.87
117.98
119.98
123.01
122.70
115.60
100.80
80.31
57.86
37.37
21.58
11.80
8.18
10.11
16.46
25.54
35.27
43.53
48.69
50.01
47.86
43.40
38.12
33.32
29.78
27.65
26.55
25.73
24.27
21.26
15.98
7.98
-2.80
-15.95
-30.60
-45.43
-58.83
-69.20
-75.35
-76.90
-74.52
-69.74
-64.60
-60.98
-60.11
-62.31
-67.08
-73.49
-80.51
-87.18
-92.60
-95.88
-96.18
-92.94
-85.96
-75.45
-61.89
-45.86
-28.02
-9.23
9.33
26.15
39.77
49.13
53.94
54.64
52.06
47.03
40.11
31.70
22.22
12.46
3.60
-2.92
-5.78
-4.14
1.93
11.30
21.88
31.25
37.32
39.00
36.42
30.61
22.89
14.22
4.99
-4.83
-15.15
-25.44
-34.74
-42.00
-46.63
-48.71
-48.96
-48.44
-48.15
-48.80
-50.74
-53.99
-58.31
-63.27
-68.46
-73.59
-78.71
-84.25
-90.85
-99.10
-109.12
-120.25
-130.92
-138.92
-141.85
-137.81
-125.99
-106.99
-82.77
-56.12
-30.02
-6.94
11.55
24.87
33.19
37.08
37.29
34.63
30.00
24.38
18.84
14.30
11.45
10.52
11.33
13.37
15.88
18.10
19.28
18.86
16.55
12.40
6.83
0.47
-6.00
-12.13
-17.80
-23.33
-29.32
-36.45
-45.10
-54.96
-64.82
-72.57
-75.67
-71.91
-60.27
-41.44
-17.75
7.48
30.89
49.93
63.25
70.66
72.68
70.13
63.89
54.85
44.05
32.69
22.09
13.49
7.73
5.09
5.19
7.11
9.64
11.63
12.26
11.18
8.45
4.34
-0.87
-7.05
-14.24
-22.52
-31.89
-42.24
-53.23
-64.20
-73.99
-80.97
-83.09
-78.51
-66.14
-46.32
-20.92
6.98
33.90
56.82
73.85
84.37
88.73
87.82
82.65
74.21
63.52
51.70
40.01
29.67
21.72
16.71
14.61
14.80
16.32
18.13
19.43
19.82
19.32
18.16
16.63
14.86
12.72
9.90
5.96
0.37
-7.41
-17.77
-30.66
-45.23
-59.52
-70.65
-75.49
-71.71
-58.66
-37.90
-12.72
12.81
35.06
51.71
61.88
65.82
64.35
58.39
48.93
37.10
24.36
12.29
2.44
-4.19
-7.38
-7.75
-6.54
-5.14
-4.67
-5.60
-7.79
-10.65
-13.57
-16.23
-18.80
-21.83
-26.03
-32.00
-40.02
-49.87
-60.71
-70.99
-78.51
-80.79
-75.63
-61.88
-40.05
-12.37
17.59
45.86
68.98
84.77
92.49
92.59
86.29
75.10
60.57
44.34
28.06
13.44
2.07
-4.88
-7.01
-4.83
0.36
6.83
13.00
17.81
20.93
22.58
23.18
22.95
21.72
19.06
14.41
7.37
-2.20
-14.11
-27.77
-42.04
-55.15
-64.84
-68.84
-65.62
-54.95
-38.19
-17.93
2.76
21.18
35.58
45.22
50.19
50.88
47.84
41.74
33.49
24.26
15.39
8.00
2.73
-0.44
-2.05
-2.87
-3.50
-4.17
-4.69
-4.72
-4.02
-2.67
-1.16
-0.23
-0.64
-2.94
-7.36
-13.70
-21.35
-29.17
-35.65
-39.04
-37.76
-30.88
-18.51
-1.90
16.80
35.18
51.15
63.38
71.27
74.81
74.22
69.85
62.26
52.38
41.53
31.27
23.02
17.67
15.28
15.16
16.14
17.00
16.88
15.45
12.90
9.64
6.10
2.42
-1.56
-6.26
-12.13
-19.46
-28.17
-37.56
-46.36
-52.85
-55.20
-52.05
-42.99
-28.79
-11.32
6.98
23.72
37.07
45.95
50.01
49.40
44.65
36.58
26.35
15.39
5.25
-2.78
-7.97
-10.40
-10.87
-10.55
-10.64
-11.92
-14.53
-18.11
-21.98
-25.55
-28.54
-31.14
-33.94
-37.63
-42.81
-49.62
-57.54
-65.32
-71.13
-73.00
-69.38
-59.67
-44.44
-25.39
-4.81
15.01
32.26
45.85
55.25
60.25
60.82
57.10
49.61
39.37
27.92
17.06
8.39
2.87
0.50
0.49
1.51
2.30
2.04
0.52
-2.04
-5.28
-9.02
-13.40
-18.78
-25.66
-34.42
-45.23
-57.94
-71.89
-85.67
-97.16
-103.80
-103.26
-94.20
-76.86
-53.07
-25.69
2.20
28.07
50.28
67.99
80.76
88.40
90.90
88.64
82.60
74.30
65.49
57.66
51.72
47.83
45.48
43.84
42.14
39.90
37.15
34.22
31.55
29.39
27.59
25.57
22.43
17.29
9.57
-0.66
-12.57
-24.53
-34.30
-39.53
-38.38
-30.10
-15.35
3.90
24.94
45.04
62.06
74.74
82.65
85.88
84.84
80.13
72.58
63.27
53.47
44.52
37.48
32.98
31.01
30.92
31.59
31.71
30.20
26.40
20.27
12.20
2.84
-7.22
-17.68
-28.51
-39.85
-51.91
-64.73
-77.96
-90.81
-101.83
-109.13
-110.73
-105.09
-91.75
-71.58
-46.66
-19.74
6.55
30.25
50.29
66.25
77.92
85.00
87.08
84.06
76.59
66.25
55.36
46.29
40.72
39.01
40.18
42.37
43.61
42.63
39.11
33.65
27.22
20.67
14.33
8.02
1.25
-6.49
-15.47
-25.66
-36.64
-47.58
-57.14
-63.60
-65.19
-60.67
-49.89
-34.05
-15.48
3.10
19.35
31.94
40.65
46.02
48.79
49.49
48.31
45.27
40.51
34.50
28.00
21.87
16.79
12.99
10.28
8.15
6.06
3.63
0.82
-2.19
-5.10
-7.74
-10.22
-12.94
-16.46
-21.38
-28.17
-37.04
-47.77
-59.53
-70.85
-79.77
-84.19
-82.52
-74.18
-59.90
-41.62
-21.96
-3.59
11.32
21.46
26.34
26.20
21.87
14.74
6.60
-0.50
-4.68
-4.67
-0.29
7.45
16.55
24.72
30.11
31.91
30.57
27.43
24.12
21.80
20.81
20.60
20.05
17.95
13.34
5.80
-4.42
-16.41
-28.55
-38.78
-44.93
-45.40
-39.64
-28.46
-13.83
1.69
15.59
25.99
31.81
32.73
28.94
20.97
9.73
-3.50
-17.04
-29.03
-37.70
-41.85
-41.11
-36.06
-28.06
-18.87
-10.13
-3.02
1.94
4.90
6.33
6.80
6.72
6.14
4.83
2.32
-1.91
-8.17
-16.27
-25.22
-33.29
-38.38
-38.59
-33.05
-22.27
-8.17
6.55
19.25
28.03
32.13
31.75
27.65
20.76
11.91
1.92
-8.30
-17.70
-25.18
-29.80
-31.07
-29.10
-24.56
-18.48
-11.99
-6.04
-1.25
2.11
4.03
4.46
3.23
-0.04
-5.75
-14.07
-24.70
-36.69
-48.55
-58.42
-64.49
-65.43
-60.73
-50.90
-37.38
-22.25
-7.79
4.01
11.74
14.67
12.66
6.05
-4.39
-17.44
-31.44
-44.43
-54.53
-60.34
-61.24
-57.50
-50.11
-40.39
-29.67
-18.98
-8.93
0.13
8.05
14.68
19.74
22.80
23.31
20.70
14.67
5.37
-6.30
-18.60
-29.07
-34.98
-34.10
-25.44
-9.70
10.86
33.01
53.49
69.83
80.70
85.86
85.77
81.19
72.93
61.94
49.37
36.58
25.03
15.91
9.83
6.66
5.55
5.34
4.91
3.53
1.06
-2.17
-5.66
-9.02
-12.22
-15.62
-19.88
-25.74
-33.69
-43.74
-55.07
-66.04
-74.33
-77.41
-73.27
-61.09
-41.64
-17.17
9.03
33.52
53.37
66.62
72.36
70.58
61.96
47.80
29.90
10.37
-8.54
-24.88
-37.32
-45.41
-49.57
-50.82
-50.36
-49.16
-47.74
-46.17
-44.20
-41.63
-38.48
-35.21
-32.65
-31.84
-33.73
-38.78
-46.65
-55.97
-64.45
-69.32
-68.06
-59.21
-42.89
-20.79
4.34
29.52
52.30
71.21
85.67
95.69
101.45
103.21
101.37
96.64
90.15
83.31
77.52
73.69
72.03
71.91
72.15
71.43
68.77
63.82
56.93
48.90
40.58
32.42
24.23
15.17
4.10
-10.06
-27.95
-49.39
-73.26
-97.43
-118.95
-134.51
-141.05
-136.60
-120.88
-95.60
-64.02
-30.20
2.00
29.67
51.15
65.90
74.23
76.96
75.27
70.56
64.40
58.24
53.15
49.64
47.57
46.33
45.12
43.21
40.14
35.74
30.14
23.73
17.02
10.53
4.65
-0.50
-5.02
-9.27
-13.77
-19.09
-25.68
-33.72
-42.89
-52.21
-60.02
-64.30
-63.13
-55.36
-41.13
-21.93
-0.31
20.84
39.06
52.71
61.15
64.52
63.55
59.27
53.02
46.30
40.53
36.79
35.57
36.60
39.07
41.89
44.09
45.00
44.24
41.70
37.33
31.14
23.24
13.93
3.70
-6.83
-17.04
-26.51
-35.12
-43.06
-50.75
-58.67
-67.22
-76.54
-86.26
-95.34
-102.12
-104.50
-100.56
-89.27
-71.00
-47.63
-22.18
2.06
22.30
36.84
45.19
47.74
45.41
39.30
30.65
20.88
11.54
4.19
-0.04
-0.71
1.82
6.57
12.31
18.03
23.14
27.46
30.93
33.35
34.27
33.09
29.39
23.24
15.31
6.67
-1.57
-8.66
-14.49
-19.51
-24.52
-30.36
-37.59
-46.26
-55.80
-64.89
-71.54
-73.51
-68.88
-56.76
-37.82
-14.26
10.77
34.10
53.38
67.55
76.66
81.42
82.62
80.78
76.31
69.74
62.03
54.43
48.23
44.25
42.63
42.73
43.34
43.28
41.83
38.93
35.05
30.80
26.57
22.46
18.12
13.07
7.00
0.06
-7.29
-14.45
-21.02
-26.93
-32.21
-36.97
-41.25
-44.96
-47.85
-49.73
-50.44
-49.71
-47.78
-43.72
-35.88
-22.92
-5.06
15.76
36.58
54.56
67.79
75.48
78.00
75.99
70.06
60.74
48.96
36.16
24.12
14.51
8.06
4.91
4.43
5.72
7.94
10.63
13.59
16.65
19.59
21.80
23.10
23.61
23.77
24.10
25.07
26.83
29.32
32.33
35.21
37.68
39.66
41.13
42.08
42.26
41.12
37.60
33.57
29.51
25.80
22.71
20.38
18.82
17.92
17.45
17.21
17.04
16.42
15.10
13.10
10.59
7.86
5.18
2.71
0.49
-1.42
-3.31
-5.29
-7.39
-9.65
-12.18
-14.99
-17.95
-20.61
-22.41
-23.09
-22.72
-21.85
-21.36
-22.09
-24.57
-28.73
-34.07
-39.84
-45.45
-50.53
-54.99
-58.94
-62.65
-66.35
-70.26
-74.39
-78.59
-82.62
-86.26
-89.30
-91.58
-93.04
-93.79
-93.96
-93.61
-92.60
-90.55
-87.01
-81.48
-73.56
-63.21
-50.95
-37.73
-24.78
-13.24
-3.93
2.40
5.53
5.76
3.73
0.19
-4.09
-8.33
-11.83
-14.12
-15.93
-17.97
-20.59
-23.96
-28.23
-33.45
-39.35
-45.26
-50.35
-55.75
-62.21
-69.80
-78.34
-88.03
-99.19
-111.57
-123.95
-134.38
-143.49
-151.15
-156.32
-158.14
-157.25
-155.68
-155.63
-158.52
-164.46
-175.51
-190.63
-205.21
-213.49
-211.87
-200.38
-182.10
-161.65
-121.50
-59.48
12.24
76.68
124.16
153.85
169.06
173.88
172.18
166.53
157.07
144.48
130.91
118.85
109.28
101.61
94.85
88.56
82.88
75.62
65.88
54.68
43.76
33.86
24.63
15.40
6.04
-2.93
-12.23
-21.88
-31.10
-39.12
-46.14
-53.23
-61.52
-71.57
-82.88
-94.64
-104.74
-110.02
-107.22
-94.30
-71.24
-39.94
-3.79
33.29
67.46
96.09
118.10
133.71
143.83
149.54
151.94
152.10
151.14
150.24
150.42
152.31
156.03
161.09
166.74
172.27
177.29
181.83
186.13
190.27
193.91
196.19
195.94
192.13
184.37
173.20
160.08
146.94
135.51
126.68
120.20
114.77
108.68
100.46
89.33
75.45
59.77
43.90
29.91
20.01
16.17
19.38
29.19
43.48
58.90
71.89
79.72
81.18
76.62
67.42
55.21
41.34
26.61
11.52
-3.58
-18.31
-32.34
-45.56
-58.10
-70.25
-82.25
-93.98
-105.01
-114.72
-122.72
-129.06
-134.34
-139.38
-144.89
-151.17
-158.00
-164.96
-171.66
-178.03
-184.30
-191.00
-198.94
-208.78
-220.65
-233.65
-245.61
-253.29
-253.19
-242.63
-220.93
-189.88
-153.20
-115.32
-80.12
-50.08
-26.18
-8.41
4.04
11.97
16.11
17.28
16.68
15.72
15.71
17.56
21.54
28.17
37.31
48.09
59.32
69.95
79.39
87.27
93.46
97.82
101.82
106.43
111.52
116.23
119.90
122.40
123.63
123.65
122.08
120.83
120.90
121.87
122.75
123.67
126.37
132.83
144.92
162.58
187.07
216.87
247.43
273.02
289.57
296.00
293.05
283.27
248.26
182.57
96.52
10.05
-61.30
-112.41
-142.81
-160.88
-172.32
-180.63
-184.44
-182.97
-177.39
-170.13
-163.29
-157.45
-152.44
-146.88
-139.95
-129.26
-114.58
-98.68
-86.38
-81.86
-86.53
-99.45
-117.56
-137.36
-153.56
-161.66
-161.06
-151.51
-134.08
-111.09
-86.04
-62.24
-42.40
-27.06
-15.54
-8.06
-4.08
-2.74
-2.88
-3.46
-3.47
-2.27
0.78
5.94
12.94
21.59
31.28
41.20
50.31
57.69
62.53
64.43
63.19
58.86
51.95
43.07
32.93
22.31
11.90
2.06
-7.41
-17.30
-28.62
-41.83
-56.44
-70.64
-81.58
-86.21
-82.28
-69.28
-48.72
-23.65
2.31
25.84
44.57
57.29
63.82
64.65
60.81
53.71
44.99
36.39
29.31
24.63
22.50
22.49
23.92
26.08
28.42
30.48
31.80
31.88
30.20
26.46
20.68
13.25
4.73
-4.37
-13.75
-23.38
-33.30
-43.57
-54.13
-64.68
-74.50
-82.33
-86.39
-84.74
-75.87
-59.43
-36.65
-10.19
16.46
40.01
58.15
69.96
75.66
76.12
72.37
65.32
55.86
44.93
33.73
23.54
15.51
10.31
7.92
7.72
8.66
9.73
10.25
10.14
9.81
9.95
11.13
13.50
16.71
19.93
22.21
22.78
21.30
17.93
13.35
8.63
5.23
4.97
9.67
20.67
38.14
60.74
85.62
109.23
128.26
140.55
145.41
143.26
135.02
121.48
103.17
80.74
55.47
29.43
5.22
-14.78
-29.12
-37.62
-41.17
-41.05
-38.32
-33.41
-26.24
-16.69
-5.02
7.92
20.87
32.47
41.75
48.25
51.93
52.92
51.33
47.19
40.70
32.54
24.01
16.99
13.53
15.16
22.29
33.85
47.58
60.63
70.41
75.17
74.29
68.02
57.19
42.82
25.83
7.31
-11.51
-29.35
-45.17
-58.45
-69.37
-78.76
-87.71
-97.42
-108.15
-119.19
-129.02
-135.87
-138.23
-135.41
-127.80
-116.51
-103.51
-90.21
-77.72
-66.67
-57.25
-48.93
-40.58
-30.81
-18.01
-1.57
18.67
41.14
62.93
80.63
91.69
93.39
84.70
70.36
53.29
35.08
16.20
-3.45
-24.06
-45.08
-65.25
-83.57
-98.61
-109.47
-114.67
-114.22
-109.01
-100.71
-91.11
-76.23
-56.59
-36.03
-24.63
-23.28
-30.85
-43.63
-59.23
-75.50
-90.30
-102.14
-108.80
-107.99
-97.07
-75.97
-46.75
-13.19
20.76
51.83
77.29
96.04
108.12
114.82
116.66
113.91
106.70
95.65
81.77
65.93
49.33
33.37
19.81
9.60
3.09
-0.02
-0.35
1.27
3.69
6.00
7.55
8.01
6.82
3.36
-3.00
-12.60
-25.39
-40.75
-57.31
-73.00
-85.35
-92.17
-92.18
-85.39
-73.24
-58.29
-43.46
-31.37
-23.80
-21.52
-24.38
-31.62
-41.97
-53.84
-65.46
-75.06
-81.26
-83.32
-81.26
-75.81
-68.09
-59.29
-50.40
-42.08
-34.64
-27.96
-21.49
-14.34
-5.61
5.23
18.01
31.73
44.90
55.96
63.87
68.38
70.15
70.56
71.35
74.30
80.79
91.37
105.42
121.16
136.03
147.54
154.11
155.69
153.66
150.12
146.90
144.74
143.09
140.76
136.78
131.12
124.85
119.69
116.95
116.79
117.82
117.74
114.41
106.73
94.94
80.29
64.28
47.89
31.18
13.32
-6.56
-28.73
-52.86
-78.38
-104.71
-131.23
-156.90
-179.94
-198.17
-209.08
-210.50
-201.55
-183.27
-158.25
-129.76
-100.76
-73.04
-47.90
-27.36
-12.92
-4.47
-0.41
1.25
2.04
2.86
5.75
10.07
14.85
19.27
22.77
25.01
26.09
26.66
26.19
25.25
24.13
23.13
22.43
21.99
21.46
20.34
18.11
14.48
9.77
4.54
0.04
-2.04
-0.09
6.67
17.81
31.66
45.84
58.12
66.75
71.03
71.21
67.99
62.09
53.97
43.89
32.28
20.00
8.17
-1.89
-9.07
-12.79
-13.26
-11.37
-8.43
-5.78
-4.39
-4.71
-6.60
-9.53
-12.80
-15.90
-18.73
-21.63
-25.31
-30.56
-38.04
-47.88
-59.45
-71.29
-81.11
-86.22
-84.15
-73.52
-54.71
-30.08
-3.48
20.87
39.53
50.91
55.34
54.59
50.85
45.87
40.57
35.21
29.86
24.73
20.34
17.25
15.76
15.65
16.22
16.43
15.35
12.29
7.08
0.05
-8.14
-16.77
-25.30
-33.61
-41.89
-50.50
-59.58
-68.99
-78.28
-86.82
-93.95
-98.96
-100.90
-98.71
-91.30
-78.06
-59.31
-36.45
-11.77
12.30
33.75
51.50
65.33
75.49
82.36
86.13
86.89
84.82
80.39
74.33
67.53
60.74
54.37
48.44
42.62
36.50
29.69
21.94
13.20
3.62
-6.49
-16.74
-26.61
-35.63
-43.36
-49.52
-54.09
-57.30
-59.68
-61.86
-64.45
-67.62
-70.96
-73.30
-72.95
-68.16
-57.76
-41.82
-21.76
-0.09
20.31
36.95
48.35
54.12
54.80
51.41
45.04
36.67
27.26
17.75
9.13
2.29
-2.21
-4.28
-4.30
-3.02
-1.24
0.39
1.45
1.77
1.28
-0.04
-2.19
-5.07
-8.48
-12.09
-15.53
-18.54
-21.09
-23.44
-26.08
-29.61
-34.50
-40.77
-47.75
-53.94
-57.30
-55.78
-48.06
-34.14
-15.54
5.11
24.83
41.17
52.69
59.14
61.08
59.55
55.61
50.25
44.36
38.77
34.21
31.14
29.66
29.47
29.84
29.97
29.09
26.76
22.91
17.77
11.66
4.91
-2.23
-9.53
-16.76
-23.63
-29.79
-35.05
-39.35
-42.88
-45.97
-49.08
-52.66
-56.98
-61.92
-66.74
-70.11
-70.32
-65.83
-55.89
-40.94
-22.61
-3.27
14.63
29.18
39.33
44.87
46.22
44.19
39.81
34.18
28.46
23.69
20.59
19.45
20.01
21.65
23.57
25.01
25.43
24.59
22.44
19.04
14.49
8.84
2.22
-5.10
-12.67
-19.99
-26.61
-32.31
-37.27
-42.00
-47.25
-53.72
-61.81
-71.31
-81.15
-89.44
-93.83
-92.14
-83.13
-67.06
-45.75
-22.10
0.71
20.10
34.57
43.81
48.33
49.07
47.05
43.22
38.46
33.59
29.35
26.30
24.63
24.20
24.52
25.01
25.11
24.49
22.93
20.30
16.42
11.03
3.90
-4.92
-15.01
-25.59
-35.71
-44.58
-51.80
-57.46
-62.05
-66.28
-70.86
-76.16
-81.94
-87.12
-89.78
-87.60
-78.60
-62.07
-39.14
-12.70
13.42
35.62
51.61
60.82
64.09
62.96
58.96
53.30
46.99
40.99
36.33
33.88
34.02
36.39
39.96
43.39
45.53
45.81
44.30
41.45
37.76
33.42
28.27
21.88
13.89
4.17
-6.95
-18.79
-30.50
-41.28
-50.58
-58.26
-64.50
-69.73
-74.40
-78.57
-81.75
-82.72
-79.85
-71.63
-57.34
-37.50
-13.89
10.90
34.19
53.87
68.79
78.68
83.91
85.14
83.19
79.04
73.77
68.48
64.09
61.12
59.60
59.16
59.23
59.32
59.14
58.63
57.85
56.74
55.10
52.60
48.88
43.81
37.50
30.37
22.96
15.76
9.04
2.74
-3.49
-10.23
-17.99
-26.93
-36.66
-45.97
-53.01
-55.66
-52.16
-41.76
-25.16
-4.43
17.51
37.59
53.36
63.45
67.58
66.38
60.97
52.63
42.64
32.18
22.30
13.88
7.54
3.57
1.90
2.06
3.35
4.92
5.98
5.86
4.26
1.16
-3.18
-8.33
-13.88
-19.50
-24.96
-30.14
-34.98
-39.49
-43.89
-48.53
-53.66
-59.15
-64.11
-66.99
-65.92
-59.39
-46.97
-29.57
-9.36
10.92
28.71
42.23
50.66
54.02
52.80
47.77
39.81
29.89
19.15
8.84
0.17
-6.00
-9.38
-10.25
-9.37
-7.68
-6.26
-5.91
-6.95
-9.23
-12.40
-16.08
-20.00
-24.09
-28.45
-33.53
-39.65
-46.75
-54.49
-62.53
-70.56
-78.20
-84.67
-88.76
-89.45
-85.87
-77.62
-65.16
-50.00
-34.40
-20.62
-10.25
-4.15
-2.98
-6.76
-14.67
-25.05
-35.85
-45.07
-51.05
-52.62
-45.88
-29.64
-6.74
17.41
38.41
54.74
66.89
75.92
82.82
87.88
90.87
91.66
90.68
88.92
87.36
86.47
86.02
86.48
85.88
82.48
75.49
65.82
55.72
47.71
43.21
40.86
39.16
35.37
27.39
14.58
-1.86
-19.71
-36.87
-52.07
-64.76
-74.36
-81.62
-85.66
-85.77
-81.81
-74.35
-64.56
-54.00
-44.19
-36.07
-30.26
-26.56
-24.29
-22.44
-20.11
-16.95
-13.19
-9.65
-7.13
-6.46
-8.06
-12.03
-17.90
-24.69
-30.95
-34.90
-35.15
-30.75
-22.12
-10.91
0.80
11.17
18.91
23.43
24.86
23.37
19.71
14.49
8.21
2.02
-2.45
-3.90
-1.78
3.70
11.28
20.07
29.32
34.72
33.16
24.65
12.07
-1.08
-9.66
-14.58
-17.02
-17.41
-15.38
-11.63
-5.81
1.94
10.71
19.29
26.31
31.68
36.01
40.18
45.40
52.71
62.08
72.45
82.34
90.09
95.15
97.63
98.00
97.16
96.22
95.90
96.50
98.07
100.34
103.31
106.91
110.91
115.04
119.08
122.60
125.03
125.80
124.35
120.39
113.74
104.25
91.94
77.06
60.09
41.60
22.24
2.51
-17.09
-36.14
-54.08
-70.04
-82.99
-91.94
-96.38
-96.46
-93.03
-87.32
-80.58
-73.79
-67.62
-62.52
-58.93
-57.29
-57.95
-61.04
-66.26
-72.99
-80.29
-87.19
-92.79
-96.46
-98.01
-97.75
-96.36
-94.64
-93.17
-92.08
-91.01
-89.34
-86.51
-82.30
-76.85
-70.62
-64.31
-58.76
-54.92
-53.63
-55.17
-58.95
-63.30
-65.83
-64.24
-57.26
-45.17
-29.78
-13.75
0.40
11.03
17.59
20.37
20.02
17.15
12.36
6.44
0.51
-4.05
-5.97
-4.60
-0.27
5.78
11.79
16.13
17.79
16.70
13.58
9.45
5.17
1.11
-2.95
-7.59
-13.47
-21.11
-30.76
-42.23
-54.82
-67.03
-76.57
-80.70
-76.76
-63.11
-39.65
-7.89
29.56
69.69
109.76
147.47
180.77
207.65
226.30
235.56
235.66
228.50
217.36
205.96
197.22
192.40
191.03
191.52
192.06
191.42
189.06
184.75
178.24
168.92
156.06
139.20
118.55
94.94
69.63
43.90
18.81
-4.87
-26.82
-46.99
-65.66
-83.26
-100.07
-115.92
-130.04
-141.35
-148.89
-152.50
-152.99
-151.97
-151.15
-151.72
-153.79
-156.48
-158.41
-158.27
-155.44
-150.04
-142.88
-134.97
-127.21
-120.15
-114.05
-109.06
-105.29
-102.92
-101.96
-102.17
-102.96
-103.47
-102.84
-100.57
-96.70
-91.92
-87.41
-84.49
-84.23
-86.96
-92.06
-97.80
-101.68
-101.02
-93.75
-79.14
-58.10
-32.99
-6.90
17.19
37.13
51.86
61.30
65.91
66.30
63.08
56.84
48.42
38.94
29.72
21.99
16.50
13.34
11.89
11.10
9.89
7.47
3.57
-1.63
-7.66
-14.04
-20.43
-26.71
-32.91
-39.15
-45.55
-52.32
-59.69
-67.89
-76.86
-85.90
-93.53
-97.53
-95.61
-86.16
-69.03
-45.79
-19.33
6.95
30.13
48.37
61.08
68.60
71.73
71.29
68.05
62.79
56.51
50.32
45.38
42.49
41.89
43.12
45.24
47.11
47.84
46.94
44.33
40.19
34.74
28.17
20.59
12.18
3.12
-6.34
-16.13
-26.33
-37.10
-48.40
-59.60
-69.26
-75.30
-75.48
-68.18
-53.10
-31.56
-6.21
19.64
42.97
61.64
74.66
81.98
84.05
81.55
75.23
66.09
55.38
44.63
35.38
28.72
25.05
23.95
24.31
24.78
24.19
21.93
17.97
12.78
6.96
0.96
-5.06
-11.22
-17.80
-25.15
-33.48
-42.92
-53.25
-63.83
-73.34
-79.81
-80.93
-74.73
-60.36
-38.58
-11.79
16.66
43.31
65.47
81.67
91.63
95.93
95.51
91.43
84.77
76.66
68.25
60.65
54.75
50.98
49.28
49.09
49.50
49.47
48.14
44.96
39.86
33.12
25.21
16.64
7.78
-1.12
-9.93
-18.60
-27.22
-36.01
-45.29
-55.27
-65.66
-75.33
-82.28
-83.96
-78.11
-63.62
-41.17
-13.22
16.61
44.57
67.67
84.30
94.15
97.88
96.61
91.61
84.11
75.41
66.79
59.36
53.87
50.52
48.99
48.52
48.25
47.38
45.39
42.04
37.31
31.32
24.26
16.40
8.06
-0.32
-8.27
-15.40
-21.48
-26.58
-31.14
-35.82
-41.30
-47.96
-55.50
-62.79
-67.94
-68.73
-63.28
-50.72
-31.61
-7.98
17.24
40.98
60.75
75.08
83.61
86.80
85.53
80.86
73.89
65.78
57.65
50.47
44.88
41.02
38.53
36.74
34.93
32.59
29.54
25.87
21.77
17.35
12.59
7.26
1.16
-5.73
-13.14
-20.43
-26.92
-32.09
-35.86
-38.63
-41.18
-44.39
-48.93
-54.99
-62.08
-68.99
-73.99
-75.15
-70.97
-60.90
-45.65
-27.07
-7.64
10.30
25.08
35.97
43.02
46.68
47.53
46.23
43.62
40.82
39.20
40.00
43.95
50.99
60.30
70.63
80.74
89.84
97.60
104.06
109.30
113.20
115.46
115.77
114.00
110.32
105.12
98.87
91.94
84.57
76.90
69.10
61.46
54.30
47.86
42.18
37.07
32.22
27.35
22.42
17.69
13.57
10.40
8.16
6.47
4.75
2.53
-0.27
-3.37
-6.41
-9.24
-12.07
-15.40
-19.62
-24.72
-30.13
-35.05
-38.75
-41.06
-42.45
-43.76
-45.78
-48.78
-52.47
-56.14
-59.06
-60.82
-61.55
-61.83
-62.39
-63.79
-66.19
-69.30
-72.51
-75.13
-76.56
-76.45
-74.80
-71.89
-68.30
-64.76
-62.05
-60.72
-60.75
-61.43
-61.26
-58.43
-51.44
-39.78
-24.41
-7.51
8.25
20.56
28.19
31.12
30.21
26.54
21.06
14.44
7.32
0.51
-5.03
-8.47
-9.44
-8.28
-5.97
-3.70
-2.40
-2.41
-3.48
-5.01
-6.46
-7.62
-8.66
-10.02
-12.06
-14.94
-18.43
-22.10
-25.46
-28.06
-29.73
-30.54
-30.82
-31.12
-32.01
-33.97
-37.09
-40.87
-44.25
-45.77
-44.04
-38.23
-28.41
-15.62
-1.68
11.39
21.76
28.22
30.34
28.44
23.40
16.44
8.89
1.90
-3.65
-7.34
-9.19
-9.66
-9.48
-9.45
-10.23
-12.16
-15.17
-18.90
-22.88
-26.80
-30.58
-34.47
-38.81
-43.82
-49.44
-55.29
-60.79
-65.49
-69.26
-72.35
-75.37
-79.03
-83.92
-90.15
-97.23
-103.95
-108.59
-109.29
-104.55
-93.77
-77.55
-57.66
-36.55
-16.81
-0.52
11.02
17.33
18.63
15.60
9.28
0.86
-8.29
-16.80
-23.42
-27.26
-27.89
-25.36
-20.16
-13.13
-5.23
2.52
9.21
14.05
16.51
16.22
13.18
7.69
0.43
-7.77
-15.99
-23.58
-30.28
-36.37
-42.52
-49.46
-57.50
-66.07
-73.63
-77.90
-76.50
-67.85
-51.76
-29.60
-4.00
21.93
45.36
64.28
77.57
84.93
86.62
83.33
76.12
66.46
56.07
46.74
39.89
36.32
36.02
38.31
42.10
46.21
49.66
51.73
51.99
50.15
46.07
39.75
31.32
21.04
9.21
-3.94
-18.30
-33.83
-50.51
-68.27
-86.81
-105.51
-123.16
-137.83
-146.99
-147.88
-138.36
-117.74
-87.37
-50.54
-11.79
24.36
54.41
76.50
90.32
96.65
96.73
91.90
83.49
72.88
61.58
51.12
42.82
37.53
35.39
35.82
37.74
39.88
41.19
41.06
39.46
36.73
33.40
29.86
26.19
22.25
17.71
12.26
5.65
-2.32
-11.78
-22.63
-34.35
-45.69
-54.58
-58.50
-55.09
-43.03
-22.73
3.56
32.20
59.15
80.97
95.55
102.32
101.79
95.15
83.88
69.55
54.00
39.24
27.19
19.24
15.77
16.07
18.62
21.66
23.82
24.41
23.41
21.14
17.96
14.02
9.38
4.08
-1.61
-7.21
-12.12
-15.91
-18.45
-20.08
-21.52
-23.47
-26.22
-29.20
-31.07
-30.06
-24.66
-14.31
0.39
17.71
35.36
51.08
63.04
70.08
71.69
68.04
59.89
48.52
35.57
22.86
12.07
4.44
0.60
0.48
3.32
7.77
12.28
15.42
16.28
14.73
11.26
6.73
1.96
-2.58
-6.84
-11.02
-15.37
-20.00
-24.85
-29.63
-33.83
-36.66
-36.99
-33.57
-25.38
-12.09
5.62
26.03
46.79
65.41
79.86
88.89
92.10
89.76
82.67
71.79
58.23
43.19
27.83
13.31
0.68
-9.17
-15.68
-18.72
-18.70
-16.54
-13.32
-10.16
-7.82
-6.61
-6.43
-6.90
-7.58
-8.13
-8.37
-8.26
-8.02
-8.01
-8.65
-10.25
-12.62
-14.87
-15.41
-12.38
-4.38
8.70
25.43
43.09
58.57
69.37
74.27
73.38
67.66
58.24
46.05
31.83
16.40
0.96
-12.97
-23.92
-31.00
-34.26
-34.66
-33.68
-32.71
-32.54
-33.23
-34.08
-34.18
-32.74
-29.44
-24.44
-18.29
-11.82
-6.01
-1.85
-0.18
-1.43
-5.19
-10.06
-13.88
-14.33
-9.83
-0.27
12.84
26.80
38.58
45.70
46.77
41.52
30.58
15.08
-3.49
-23.35
-42.46
-58.78
-70.63
-77.13
-78.42
-75.52
-69.95
-63.16
-56.05
-48.73
-40.65
-30.85
-18.48
-3.26
14.22
32.40
49.00
61.61
68.36
68.63
63.37
54.94
46.35
40.44
38.96
42.13
48.70
56.53
63.32
67.28
67.53
63.94
56.93
47.09
34.98
21.19
6.43
-8.30
-21.88
-33.27
-41.89
-47.82
-51.82
-54.90
-57.90
-61.09
-64.14
-66.36
-67.23
-66.86
-66.08
-66.12
-68.07
-72.34
-78.54
-85.71
-92.62
-98.11
-101.09
-100.46
-95.28
-84.98
-69.85
-51.21
-31.21
-12.25
3.79
15.97
24.31
29.34
31.62
31.55
29.47
25.91
21.86
18.62
17.57
19.74
25.44
34.10
44.54
55.31
65.06
72.89
78.42
81.69
82.99
82.52
80.19
75.52
67.69
55.83
39.41
18.67
-5.04
-29.29
-50.99
-67.19
-75.86
-76.57
-70.47
-59.86
-47.38
-35.30
-25.11
-17.59
-13.04
-11.52
-12.76
-16.08
-20.26
-23.88
-25.77
-25.51
-23.59
-21.15
-19.57
-20.01
-23.03
-28.57
-35.89
-43.73
-50.47
-54.53
-54.91
-51.76
-46.57
-41.62
-39.12
-40.49
-45.92
-54.45
-64.18
-72.75
-77.79
-77.28
-70.00
-55.50
-34.88
-10.65
13.96
36.08
54.01
67.39
76.58
82.17
85.10
85.74
83.93
79.58
73.15
65.69
58.44
52.26
47.53
45.25
45.91
49.31
54.91
62.26
71.16
81.27
91.81
101.50
110.40
118.24
124.29
127.80
128.47
126.88
124.07
121.07
109.90
87.78
58.02
27.64
1.90
-18.11
-33.68
-46.66
-58.67
-70.84
-82.45
-93.02
-103.16
-113.49
-123.99
-133.53
-140.41
-143.23
-141.36
-133.93
-121.15
-104.35
-84.06
-62.10
-40.11
-19.51
-1.72
11.88
20.77
24.63
23.43
17.74
8.62
-2.15
-12.75
-21.88
-28.94
-33.66
-36.35
-37.60
-38.04
-38.16
-37.74
-35.87
-31.14
-22.06
-7.57
12.10
35.21
58.74
79.23
94.03
101.97
103.52
100.21
93.81
85.72
76.79
67.51
58.39
50.19
43.89
40.28
39.67
41.72
45.70
50.76
56.23
61.70
66.86
71.30
74.41
75.46
73.85
69.32
62.10
52.82
42.40
31.85
22.11
13.85
7.30
2.15
-2.33
-7.12
-13.13
-20.94
-30.79
-42.64
-56.19
-70.72
-84.81
-96.40
-103.18
-103.35
-96.39
-83.50
-67.25
-50.78
-36.98
-27.79
-24.23
-26.49
-34.08
-45.90
-60.43
-75.76
-89.96
-101.38
-108.73
-111.51
-109.78
-104.02
-94.97
-83.54
-70.69
-57.14
-43.37
-29.35
-15.35
-1.84
10.52
21.02
29.22
35.08
38.92
41.25
42.94
44.17
44.82
44.63
43.31
40.63
36.24
29.58
19.89
8.39
-3.69
-15.04
-24.87
-32.79
-38.35
-40.90
-39.91
-37.47
-33.21
-27.43
-20.94
-14.63
-9.08
-4.47
-0.69
2.96
6.56
10.37
14.07
17.35
20.09
22.47
24.76
27.20
29.81
32.38
34.96
37.29
39.18
40.65
41.81
42.80
43.73
44.58
45.21
45.69
45.92
45.75
45.01
43.29
40.21
35.54
29.34
21.90
13.91
5.97
-1.40
-8.04
-14.52
-21.66
-30.03
-39.91
-51.00
-62.25
-72.11
-78.64
-80.22
-76.60
-68.50
-57.31
-44.91
-33.11
-23.14
-15.48
-9.71
-5.01
-1.11
2.27
5.66
9.29
13.25
17.72
21.50
24.32
30.51
42.68
60.01
80.76
102.17
121.34
136.22
146.18
152.23
156.02
158.42
159.80
160.22
159.24
156.21
150.47
141.48
129.12
113.51
94.64
72.99
49.70
26.11
3.50
-17.09
-35.15
-50.57
-63.78
-75.76
-87.23
-98.12
-107.61
-114.35
-116.96
-114.61
-107.39
-96.34
-83.27
-70.09
-58.31
-48.94
-42.57
-39.43
-39.41
-42.06
-46.55
-51.87
-56.95
-60.95
-63.37
-63.99
-62.85
-60.10
-56.08
-51.32
-46.62
-42.88
-41.00
-41.53
-44.59
-49.78
-56.34
-63.31
-69.73
-74.80
-77.99
-79.11
-78.33
-76.11
-73.07
-69.75
-66.50
-63.37
-60.21
-56.78
-52.97
-48.86
-44.74
-40.81
-37.05
-32.87
-27.20
-18.72
-6.30
10.42
30.74
52.88
74.46
93.12
107.10
115.63
118.88
117.63
113.02
106.13
97.98
89.48
81.46
74.59
69.31
65.73
63.54
62.20
61.03
59.44
57.09
53.94
50.20
46.18
42.12
38.04
33.70
28.69
22.60
15.16
6.38
-3.37
-13.44
-23.09
-31.71
-38.99
-45.03
-50.32
-55.54
-61.19
-67.20
-72.77
-76.48
-76.76
-72.40
-63.10
-49.58
-33.47
-16.77
-1.25
11.85
21.87
28.51
31.68
31.47
28.19
22.27
14.66
6.70
-0.22
-5.17
-7.98
-9.11
-9.25
-9.01
-9.17
-9.80
-10.33
-9.98
-8.56
-6.81
-6.03
-7.40
-11.57
-19.24
-29.83
-41.61
-52.50
-61.13
-67.56
-72.88
-78.50
-85.76
-96.53
-110.85
-126.66
-140.29
-147.93
-147.06
-136.66
-116.93
-83.39
-38.07
11.09
53.83
83.80
101.92
112.20
117.38
119.15
118.85
114.57
106.42
95.87
85.10
75.88
68.70
63.26
59.12
55.82
52.08
47.44
42.20
37.10
32.71
28.88
25.17
21.35
17.38
12.88
8.12
3.73
0.47
-1.35
-2.34
-3.77
-7.03
-13.14
-22.51
-34.01
-45.26
-53.27
-55.50
-50.93
-40.24
-25.56
-9.66
4.79
16.14
23.87
28.35
30.29
30.34
28.93
26.45
23.37
20.25
17.69
16.13
15.81
16.98
20.25
26.71
37.61
53.61
73.95
96.05
116.05
129.99
135.15
130.91
118.70
101.28
81.75
62.72
45.92
32.18
21.43
12.81
4.88
-3.90
-14.52
-26.98
-40.29
-52.88
-63.24
-70.36
-73.81
-73.64
-70.11
-63.70
-55.21
-45.91
-37.29
-30.69
-26.82
-25.50
-25.79
-26.41
-26.28
-24.84
-22.08
-18.38
-14.15
-9.76
-5.40
-1.15
2.97
6.97
10.94
14.98
19.16
23.37
27.12
29.65
30.11
27.80
22.49
14.56
5.02
-4.66
-12.85
-18.17
-19.78
-17.73
-12.82
-6.40
0.11
5.72
10.08
13.43
16.33
19.25
22.29
25.19
27.50
28.77
28.79
27.62
25.53
22.84
19.86
16.76
13.57
10.24
6.70
2.95
-0.93
-4.75
-8.30
-11.51
-14.46
-17.44
-20.83
-25.03
-30.36
-36.98
-44.75
-53.21
-61.48
-68.35
-72.54
-73.10
-69.70
-62.72
-53.16
-42.24
-31.06
-20.49
-11.12
-3.38
2.35
5.78
6.72
5.27
1.83
-2.96
-8.31
-13.41
-17.63
-20.53
-21.87
-21.56
-19.68
-16.44
-12.23
-7.57
-3.01
1.11
4.76
8.14
11.38
14.30
16.38
17.02
15.89
13.22
9.75
6.38
3.91
2.85
3.51
6.21
11.21
18.54
27.71
37.63
46.87
54.10
58.59
60.31
59.81
57.79
54.79
51.11
46.86
42.13
37.15
32.26
27.84
24.19
21.49
19.74
18.82
18.49
18.48
18.53
18.40
17.89
16.88
15.29
13.07
10.15
6.40
1.70
-3.99
-10.55
-17.58
-24.32
-29.79
-32.93
-32.88
-29.32
-22.59
-13.61
-3.66
5.97
14.25
20.55
24.69
26.83
27.36
26.65
25.05
22.79
20.04
16.98
13.92
11.30
9.62
9.18
9.90
11.31
12.69
13.27
12.57
10.55
7.62
4.46
1.65
-0.49
-1.98
-3.16
-4.45
-6.11
-8.15
-10.39
-12.56
-14.41
-15.67
-15.92
-14.53
-10.84
-4.39
4.73
15.69
27.09
37.30
44.98
49.42
50.63
49.08
45.38
40.00
33.18
25.23
16.74
8.66
2.13
-1.97
-3.28
-2.15
0.58
3.95
7.18
9.87
11.80
12.86
12.89
11.75
9.43
6.15
2.37
-1.36
-4.50
-6.62
-7.35
-6.48
-4.05
-0.43
3.62
7.16
9.46
10.29
10.05
9.54
9.59
10.54
12.15
13.67
14.30
13.59
11.66
9.04
6.36
3.98
1.85
-0.50
-3.61
-7.82
-13.03
-18.69
-24.05
-28.54
-31.93
-34.43
-36.48
-38.44
-40.41
-42.28
-43.86
-45.07
-46.12
-47.32
-48.93
-50.98
-53.23
-55.25
-56.64
-57.14
-56.67
-55.16
-52.55
-48.67
-43.46
-37.00
-29.67
-22.05
-14.73
-8.17
-2.59
1.98
5.48
7.74
8.52
7.65
5.21
1.64
-2.43
-6.29
-9.47
-11.80
-13.38
-14.43
-15.19
-15.76
-16.17
-16.40
-16.36
-15.96
-15.14
-13.90
-12.36
-10.78
-9.53
-8.94
-9.25
-10.52
-12.67
-15.51
-18.72
-21.96
-24.79
-26.70
-27.14
-25.68
-22.03
-16.29
-8.99
-1.08
6.21
11.70
14.54
14.49
11.88
7.56
2.53
-2.32
-6.41
-9.56
-11.84
-13.46
-14.61
-15.34
-15.54
-15.01
-13.59
-11.29
-8.40
-5.49
-3.23
-2.18
-2.54
-4.11
-6.43
-8.98
-11.39
-13.53
-15.38
-16.99
-18.28
-19.19
-19.71
-19.94
-20.02
-19.91
-19.36
-17.90
-15.03
-10.54
-4.59
2.38
9.90
17.73
25.98
34.94
44.79
55.23
65.34
73.57
78.29
78.27
73.12
63.36
50.14
34.83
18.52
1.99
-14.21
-29.44
-42.89
-53.82
-61.77
-66.89
-69.85
-71.53
-72.66
-73.48
-73.85
-73.39
-71.92
-69.54
-66.68
-63.83
-61.27
-58.72
-55.32
-49.83
-41.07
-28.39
-12.05
6.61
25.50
42.31
55.10
62.74
65.13
63.06
57.93
51.41
45.04
40.09
37.40
37.30
39.57
43.55
48.22
52.48
55.49
56.86
56.80
55.89
54.90
54.36
54.44
54.89
55.13
54.47
52.24
47.93
41.26
32.32
21.71
10.44
-0.19
-8.96
-15.01
-18.11
-18.60
-17.19
-14.65
-11.61
-8.44
-5.44
-2.91
-1.26
-0.87
-1.99
-4.58
-8.24
-12.44
-16.66
-20.58
-24.19
-27.65
-31.20
-34.98
-39.01
-43.21
-47.43
-51.42
-54.85
-57.30
-58.34
-57.67
-55.33
-51.74
-47.63
-43.91
-41.29
-40.23
-40.81
-42.86
-46.03
-49.91
-53.90
-57.25
-59.10
-58.67
-55.62
-50.20
-43.30
-36.13
-29.84
-25.14
-22.08
-20.30
-19.25
-18.55
-18.13
-18.11
-18.64
-19.63
-20.63
-20.89
-19.69
-16.64
-11.91
-6.19
-0.49
4.29
7.58
9.29
9.74
9.42
8.91
8.73
9.32
10.97
13.63
16.95
20.19
22.48
23.04
21.54
18.17
13.66
9.12
5.66
4.12
4.80
7.38
11.06
14.85
17.89
19.69
20.19
19.55
18.11
16.19
14.05
11.98
10.25
9.16
8.97
9.93
12.19
15.81
20.62
26.23
32.04
37.35
41.58
44.36
45.66
45.67
44.74
43.22
41.35
39.30
37.11
34.71
31.91
28.46
24.22
19.28
14.00
9.02
4.98
2.25
0.68
-0.49
-2.44
-6.25
-12.47
-20.67
-29.54
-37.34
-42.47
-44.14
-42.48
-38.47
-33.36
-28.24
-23.68
-19.74
-16.18
-12.76
-9.50
-6.70
-4.89
-4.58
-6.14
-9.56
-14.54
-20.62
-27.30
-34.22
-41.06
-47.46
-52.87
-56.71
-58.44
-57.92
-55.54
-52.10
-48.56
-45.65
-43.58
-42.05
-40.30
-37.54
-33.19
-27.20
-20.00
-12.45
-5.44
0.32
4.59
7.51
9.48
10.97
12.24
13.35
14.17
14.59
14.54
14.12
13.56
13.12
13.02
13.43
14.35
15.77
17.65
19.95
22.63
25.42
27.67
28.48
26.90
22.40
15.20
6.30
-2.89
-11.13
-17.86
-23.38
-28.43
-33.70
-39.22
-44.35
-48.11
-49.78
-49.22
-47.00
-44.10
-41.53
-40.12
-40.48
-43.05
-48.21
-56.30
-67.52
-81.80
-98.67
-117.35
-136.91
-156.44
-175.17
-192.30
-206.89
-217.64
-223.14
-222.25
-214.80
-202.06
-186.61
-171.57
-159.56
-151.78
-147.81
-146.18
-145.42
-144.91
-145.23
-147.77
-153.82
-163.65
-175.95
-187.85
-195.71
-196.28
-187.75
-170.39
-146.21
-118.18
-89.04
-60.54
-33.27
-7.11
18.27
43.05
67.30
91.00
114.03
135.85
155.32
170.83
180.92
185.03
183.91
179.39
173.66
168.36
164.11
160.56
156.88
152.25
146.13
138.18
128.21
116.08
101.98
86.56
70.96
56.43
43.86
33.28
23.80
13.88
2.05
-12.44
-29.20
-46.54
-61.93
-72.67
-76.65
-72.92
-61.85
-44.81
-23.56
0.36
26.01
52.80
80.03
106.39
129.95
148.67
161.26
167.83
169.97
170.09
170.39
172.06
175.06
178.48
181.34
183.13
184.09
184.90
186.30
188.66
191.83
195.33
198.56
201.18
203.29
205.39
208.16
212.09
217.20
222.97
228.47
232.76
235.22
235.77
234.86
233.20
231.61
230.82
231.44
233.88
238.09
243.42
248.49
251.33
249.89
242.42
228.01
206.73
179.64
148.57
115.83
83.85
54.74
29.98
10.16
-5.02
-16.55
-25.70
-33.62
-41.06
-48.34
-55.52
-62.54
-69.44
-76.34
-83.48
-91.04
-99.17
-108.02
-117.77
-128.60
-140.67
-154.03
-168.57
-184.08
-200.44
-217.64
-235.81
-254.98
-274.93
-294.99
-314.27
-331.92
-347.60
-361.59
-374.78
-388.09
-401.99
-416.19
-429.70
-441.23
-449.63
-454.22
-454.78
-451.32
-443.70
-431.42
-413.52
-388.64
-355.34
-312.51
-260.00
-198.93
-131.85
-62.33
5.73
68.82
124.29
170.53
206.93
233.64
251.48
261.70
265.96
266.14
264.07
261.45
259.50
258.86
259.42
260.32
260.25
258.06
253.49
247.58
242.65
241.54
246.71
259.45
279.38
304.62
332.06
358.08
379.30
393.21
398.73
396.29
387.69
375.34
361.49
347.38
332.90
316.82
297.60
274.20
246.70
216.35
184.96
154.17
124.60
95.66
65.80
33.38
-2.66
-42.22
-84.25
-127.29
-170.13
-212.21
-253.71
-295.26
-337.81
-382.61
-431.17
-484.87
-543.76
-605.33
-663.85
-711.36
-740.01
-745.09
-727.11
-691.78
-647.75
-603.48
-564.50
-532.58
-506.51
-483.72
-461.54
-437.75
-410.30
-377.06
-336.24
-286.93
-229.81
-167.00
-101.46
-36.16
26.74
86.18
141.90
193.78
241.51
284.32
321.33
352.00
376.53
396.07
412.69
429.10
447.87
470.58
496.68
522.98
544.07
553.86
547.59
523.67
484.16
433.85
378.36
322.12
267.43
214.83
164.45
117.20
75.36
42.03
19.92
10.17
11.84
22.19
37.58
54.50
70.46
84.13
94.99
102.70
106.88
107.01
102.90
95.03
84.81
74.17
64.91
58.08
53.59
50.47
47.45
43.59
38.74
33.48
28.62
24.62
21.26
17.54
12.27
4.57
-5.66
-17.63
-30.02
-41.69
-52.15
-61.78
-71.73
-83.28
-97.49
-114.66
-134.06
-153.90
-171.43
-183.36
-186.57
-179.05
-160.54
-132.87
-99.55
-64.70
-31.98
-3.67
19.53
38.01
52.58
63.80
71.86
76.78
78.78
78.53
77.04
75.33
74.05
73.21
72.33
70.86
68.54
65.64
62.78
60.47
58.79
57.14
54.50
49.92
42.95
33.92
23.78
13.66
4.38
-3.77
-11.11
-18.31
-26.13
-35.14
-45.41
-56.31
-66.38
-73.46
-75.15
-69.49
-55.73
-34.62
-8.25
20.59
49.31
76.00
99.68
119.94
136.60
149.50
158.48
163.58
165.26
164.39
162.06
159.33
156.86
154.83
152.93
150.55
147.04
141.97
135.43
128.09
121.11
115.86
113.42
114.13
117.25
121.00
123.04
121.28
114.57
103.11
88.30
72.18
56.63
42.87
31.31
21.85
14.19
8.01
2.92
-1.65
-6.56
-12.66
-20.44
-29.68
-39.43
-48.32
-55.16
-59.32
-60.99
-60.95
-60.27
-59.83
-60.22
-61.62
-63.99
-67.14
-70.85
-74.96
-79.50
-84.63
-90.64
-97.65
-105.51
-113.62
-121.06
-126.84
-130.19
-130.82
-128.95
-125.13
-120.03
-114.30
-108.41
-102.71
-97.38
-92.42
-87.62
-82.65
-77.14
-70.88
-63.91
-56.49
-49.00
-41.72
-34.80
-28.18
-21.75
-15.37
-9.02
-2.78
3.15
8.46
12.70
15.37
16.05
14.55
11.04
5.99
0.09
-5.95
-11.61
-16.57
-20.69
-23.99
-26.57
-28.66
-30.57
-32.64
-35.09
-37.99
-41.13
-44.19
-46.79
-48.64
-49.60
-49.66
-49.00
-47.90
-46.72
-45.76
-45.19
-44.92
-44.64
-43.92
-42.38
-39.83
-36.43
-32.56
-28.74
-25.52
-23.25
-22.06
-21.85
-22.27
-22.88
-23.23
-22.98
-22.04
-20.59
-19.11
-18.28
-18.79
-21.13
-25.39
-31.15
-37.53
-43.46
-48.03
-50.77
-51.73
-51.47
-50.74
-50.28
-50.54
-51.67
-53.50
-55.64
-57.49
-58.39
-57.71
-55.06
-50.36
-43.95
-36.47
-28.64
-21.03
-13.98
-7.54
-1.63
3.86
8.97
13.61
17.70
21.11
23.78
25.59
26.41
26.07
24.50
21.75
18.11
14.02
9.98
6.32
3.16
0.37
-2.35
-5.23
-8.39
-11.76
-15.14
-18.33
-21.23
-23.76
-25.87
-27.44
-28.28
-28.23
-27.24
-25.43
-23.05
-20.35
-17.47
-14.47
-11.34
-8.20
-5.30
-2.95
-1.39
-0.64
-0.50
-0.75
-1.19
-1.85
-2.86
-4.34
-6.26
-8.40
-10.45
-12.16
-13.36
-14.09
-14.39
-14.26
-13.66
-12.51
-10.82
-8.70
-6.40
-4.19
-2.29
-0.76
0.38
1.13
1.46
1.26
0.37
-1.34
-3.86
-7.07
-10.61
-13.99
-16.67
-18.19
-18.35
-17.26
-15.25
-12.77
-10.17
-7.61
-5.09
-2.60
-0.19
1.90
3.40
4.10
4.02
3.39
2.47
1.49
0.56
-0.29
-1.05
-1.60
-1.72
-1.28
-0.25
1.21
2.78
4.08
4.87
5.11
4.91
4.42
3.74
2.84
1.68
0.23
-1.42
-3.08
-4.56
-5.77
-6.74
-7.61
-8.53
-9.54
-10.50
-11.15
-11.14
-10.11
-7.85
-4.26
0.51
6.13
12.06
17.56
21.80
24.11
24.11
21.93
18.17
13.74
9.54
6.24
4.05
2.84
2.26
1.95
1.59
1.04
0.22
-0.88
-2.28
-3.89
-5.69
-7.62
-9.63
-11.69
-13.79
-15.85
-17.81
-19.61
-21.14
-22.36
-23.19
-23.63
-23.73
-23.57
-23.17
-22.46
-21.25
-19.33
-16.55
-12.93
-8.63
-3.91
0.97
5.76
10.22
14.07
17.01
18.84
19.53
19.22
18.28
17.14
16.19
15.64
15.58
15.97
16.73
17.78
19.01
20.24
21.28
21.94
22.12
21.84
21.27
20.62
20.10
19.78
19.52
19.05
17.97
15.93
12.78
8.63
3.93
-0.76
-4.89
-8.15
-10.48
-12.07
-13.10
-13.63
-13.53
-12.54
-10.55
-7.66
-4.25
-0.82
2.22
4.65
6.45
7.68
8.38
8.47
7.84
6.41
4.26
1.64
-1.10
-3.56
-5.46
-6.68
-7.24
-7.25
-6.86
-6.24
-5.52
-4.83
-4.31
-4.07
-4.19
-4.68
-5.43
-6.28
-7.06
-7.65
-8.05
-8.30
-8.52
-8.75
-9.09
-9.62
-10.49
-11.82
-13.66
-15.84
-17.95
-19.49
-19.94
-19.08
-16.98
-14.05
-10.81
-7.73
-5.10
-2.94
-1.12
0.53
2.05
3.40
4.49
5.21
5.53
5.53
5.38
5.24
5.22
5.32
5.42
5.41
5.17
4.73
4.21
3.78
3.52
3.46
3.49
3.49
3.43
3.30
3.19
3.04
2.65
1.74
0.04
-2.39
-5.22
-7.83
-9.62
-10.27
-9.93
-9.11
-8.46
-8.41
-9.00
-9.84
-10.31
-9.88
-8.25
-5.47
-1.85
2.25
6.46
10.44
13.82
16.25
17.33
16.88
14.94
11.84
8.12
4.38
1.09
-1.47
-3.22
-4.29
-4.87
-5.14
-5.24
-5.12
-4.66
-3.67
-2.08
-0.01
2.19
4.06
5.22
5.50
5.02
4.11
3.19
2.57
2.38
2.54
2.84
3.01
2.80
2.06
0.71
-1.14
-3.24
-5.24
-6.72
-7.30
-6.82
-5.34
-3.13
-0.63
1.78
3.82
5.37
6.43
6.96
6.88
6.11
4.71
2.93
1.17
-0.15
-0.80
-0.80
-0.41
0.03
0.33
0.52
0.79
1.27
1.96
2.60
2.87
2.57
1.72
0.58
-0.53
-1.39
-1.96
-2.36
-2.80
-3.46
-4.39
-5.56
-6.95
-8.55
-10.39
-12.37
-14.29
-15.71
-16.16
-15.27
-12.91
-9.27
-4.86
-0.25
4.00
7.49
10.05
11.65
12.37
12.36
11.74
10.66
9.28
7.85
6.58
5.66
5.17
5.02
5.06
5.12
5.11
5.01
4.88
4.76
4.67
4.56
4.38
4.04
3.47
2.63
1.53
0.30
-0.92
-1.93
-2.67
-3.20
-3.74
-4.48
-5.56
-6.94
-8.48
-9.96
-11.18
-11.93
-11.97
-11.05
-8.99
-5.86
-1.99
2.07
5.76
8.69
10.78
12.18
13.07
13.58
13.69
13.28
12.32
10.91
9.36
8.02
7.18
6.95
7.19
7.62
7.93
8.00
7.91
7.95
8.43
9.45
10.81
12.08
12.72
12.40
11.11
9.16
7.02
5.00
3.18
1.37
-0.65
-3.00
-5.60
-8.17
-10.42
-12.16
-13.28
-13.77
-13.50
-12.25
-9.81
-6.12
-1.42
3.76
8.71
12.83
15.74
17.44
18.18
18.26
17.93
17.20
15.99
14.25
12.10
9.81
7.71
6.06
4.87
4.03
3.35
2.70
2.13
1.78
1.73
1.96
2.23
2.27
1.87
0.98
-0.29
-1.76
-3.21
-4.51
-5.58
-6.39
-6.93
-7.24
-7.41
-7.66
-8.15
-8.97
-10.00
-10.84
-11.02
-10.12
-8.03
-4.93
-1.34
2.22
5.34
7.80
9.60
10.75
11.21
10.90
9.81
8.09
6.07
4.12
2.54
1.45
0.72
0.12
-0.51
-1.25
-1.99
-2.60
-2.98
-3.15
-3.23
-3.38
-3.74
-4.36
-5.23
-6.28
-7.39
-8.41
-9.21
-9.72
-10.02
-10.35
-10.99
-12.19
-13.94
-15.99
-17.91
-19.29
-19.86
-19.56
-18.46
-16.71
-14.46
-11.81
-8.97
-6.16
-3.69
-1.76
-0.52
0.07
0.10
-0.31
-1.09
-2.25
-3.81
-5.79
-8.12
-10.69
-13.39
-16.19
-19.13
-22.35
-25.89
-29.68
-33.50
-37.02
-39.99
-42.33
-44.16
-45.67
-47.03
-48.27
-49.31
-50.05
-50.53
-50.93
-51.51
-52.45
-53.66
-54.73
-55.01
-53.85
-50.79
-45.78
-39.12
-31.37
-23.12
-14.85
-6.89
0.55
7.36
13.51
19.01
24.02
28.78
33.46
38.19
42.93
47.52
51.76
55.48
58.56
60.98
62.72
63.73
64.02
63.61
62.62
61.22
59.67
58.14
56.79
55.65
54.63
53.58
52.31
50.63
48.42
45.64
42.36
38.76
35.20
32.14
30.09
29.49
30.52
33.09
36.80
41.15
45.60
49.67
52.96
55.06
55.54
54.00
50.22
44.25
36.43
27.30
17.46
7.52
-1.95
-10.44
-17.52
-22.96
-26.77
-29.18
-30.46
-30.72
-29.79
-27.29
-22.94
-16.78
-9.31
-1.32
6.31
12.83
17.63
20.32
20.64
18.58
14.48
9.04
3.26
-1.94
-5.91
-8.57
-10.28
-11.61
-13.04
-14.65
-16.14
-17.04
-16.93
-15.63
-13.25
-10.08
-6.40
-2.49
1.43
5.09
8.18
10.36
11.50
11.71
11.36
10.93
10.76
10.91
11.11
10.87
9.69
7.14
3.04
-2.53
-9.24
-16.55
-23.78
-30.25
-35.44
-39.05
-41.10
-41.87
-41.75
-41.11
-40.22
-39.23
-38.17
-37.04
-35.89
-34.85
-34.13
-33.94
-34.40
-35.40
-36.64
-37.60
-37.79
-36.77
-34.32
-30.40
-25.10
-18.59
-11.14
-3.10
5.05
12.78
19.62
25.31
29.73
32.91
34.88
35.67
35.40
34.36
33.02
31.94
31.43
31.43
31.49
30.98
29.43
26.79
23.49
20.28
17.90
16.80
16.90
17.74
18.55
18.67
17.68
15.57
12.69
9.51
6.53
4.06
2.25
1.10
0.46
0.11
-0.28
-1.07
-2.42
-4.23
-6.08
-7.30
-7.30
-5.77
-2.84
0.92
4.74
7.94
10.10
11.13
11.16
10.37
8.88
6.75
4.01
0.84
-2.37
-5.13
-7.03
-7.89
-7.79
-6.95
-5.56
-3.64
-1.12
2.05
5.70
9.45
12.71
14.99
16.01
15.74
14.30
11.82
8.40
4.14
-0.74
-5.86
-10.73
-14.98
-18.49
-21.41
-24.11
-26.81
-29.54
-31.98
-33.67
-34.19
-33.36
-31.27
-28.20
-24.47
-20.32
-15.93
-11.41
-6.85
-2.38
1.83
5.58
8.62
10.73
11.78
11.81
11.09
10.00
8.91
8.02
7.37
6.85
6.29
5.63
4.97
4.48
4.34
4.54
4.90
5.11
4.88
4.03
2.59
0.68
-1.52
-3.96
-6.63
-9.48
-12.34
-14.92
-16.95
-18.39
-19.52
-20.83
-22.71
-25.12
-27.46
-28.77
-28.11
-25.03
-19.74
-13.06
-5.96
0.76
6.70
11.77
15.94
19.12
21.07
21.59
20.71
18.77
16.40
14.35
13.16
13.07
13.94
15.34
16.75
17.72
18.03
17.71
16.99
16.16
15.42
14.89
14.50
14.15
13.72
13.12
12.27
11.18
9.89
8.55
7.36
6.44
5.73
4.88
3.38
0.70
-3.38
-8.61
-14.30
-19.44
-23.04
-24.35
-23.03
-19.14
-13.08
-5.50
2.83
11.04
18.36
24.17
28.13
30.19
30.51
29.37
27.11
24.04
20.50
16.81
13.27
10.10
7.38
5.03
2.89
0.77
-1.40
-3.61
-5.75
-7.74
-9.57
-11.34
-13.23
-15.34
-17.71
-20.25
-22.88
-25.51
-28.08
-30.50
-32.61
-34.20
-35.03
-35.00
-34.21
-32.96
-31.68
-30.62
-29.86
-29.09
-27.72
-25.13
-20.79
-14.49
-6.41
2.88
12.57
21.73
29.60
35.73
40.03
42.69
44.03
44.36
43.88
42.70
40.98
38.93
36.83
34.97
33.53
32.50
31.76
31.08
30.27
29.24
28.03
26.72
25.38
24.00
22.52
20.83
18.88
16.73
14.52
12.42
10.57
9.02
7.76
6.78
6.10
5.70
5.54
5.45
5.27
4.93
4.55
4.47
5.07
6.62
9.07
12.15
15.44
18.55
21.21
23.30
24.69
25.23
24.69
22.90
19.81
15.67
10.93
6.14
1.76
-1.93
-4.93
-7.43
-9.73
-12.03
-14.35
-16.44
-17.90
-18.34
-17.59
-15.84
-13.65
-11.92
-11.88
-14.86
-22.10
-34.19
-50.61
-69.40
-87.40
-101.03
-107.50
-105.81
-97.10
-84.11
-70.03
-57.39
-47.33
-39.78
-33.90
-28.87
-24.21
-19.80
-15.67
-11.78
-8.02
-4.32
-0.82
2.04
3.71
3.69
1.80
-1.74
-6.34
-11.22
-15.57
-18.84
-20.88
-21.90
-22.39
-22.83
-23.58
-24.66
-25.88
-26.95
-27.66
-27.97
-27.94
-27.65
-27.09
-26.14
-24.70
-22.71
-20.32
-17.81
-15.52
-13.73
-12.61
-12.13
-12.11
-12.30
-12.45
-12.37
-11.93
-10.97
-9.28
-6.55
-2.50
3.00
9.71
16.93
23.65
28.78
31.45
31.29
28.49
23.68
17.65
11.15
4.85
-0.75
-5.10
-7.56
-7.56
-4.71
0.96
8.87
18.03
27.32
35.69
42.42
47.26
50.24
51.59
51.58
50.39
48.16
45.09
41.47
37.64
33.96
30.60
27.45
24.19
20.34
15.57
9.76
3.01
-4.38
-12.07
-19.65
-26.65
-32.52
-36.65
-38.50
-37.78
-34.56
-29.25
-22.53
-15.28
-8.28
-2.28
2.15
4.68
5.22
3.98
1.50
-1.54
-4.45
-6.74
-8.15
-8.64
-8.29
-7.17
-5.42
-3.18
-0.69
1.74
3.84
5.46
6.58
7.29
7.63
7.60
7.13
6.19
4.87
3.32
1.73
0.24
-1.04
-2.06
-2.72
-2.94
-2.71
-2.07
-1.02
0.53
2.78
5.99
10.27
15.42
20.90
25.96
29.90
32.27
32.93
31.98
29.66
26.22
21.93
17.14
12.27
7.88
4.52
2.65
2.48
3.91
6.50
9.60
12.54
14.93
16.61
17.75
18.53
19.08
19.43
19.58
19.51
19.24
18.64
17.34
14.85
10.76
5.05
-1.70
-8.47
-14.15
-17.97
-19.83
-20.14
-19.50
-18.31
-16.63
-14.22
-10.75
-6.12
-0.51
5.70
12.13
18.48
24.54
30.01
34.43
37.24
37.91
36.26
32.62
27.67
22.29
17.18
12.69
8.80
5.30
2.00
-1.12
-3.91
-6.14
-7.71
-8.70
-9.41
-10.16
-11.15
-12.38
-13.62
-14.58
-15.04
-15.00
-14.70
-14.44
-14.48
-14.91
-15.73
-16.94
-18.62
-20.92
-23.81
-26.95
-29.62
-30.94
-30.16
-27.04
-21.96
-15.73
-9.28
-3.28
2.00
6.49
10.15
12.75
13.99
13.63
11.82
9.08
6.20
3.98
2.90
3.06
4.24
6.08
8.21
10.48
12.77
15.12
17.53
19.94
22.13
23.80
24.57
24.13
22.39
19.56
16.08
12.54
9.45
7.14
5.67
4.93
4.67
4.62
4.50
4.05
3.10
1.57
-0.32
-2.05
-2.92
-2.24
0.29
4.44
9.44
14.35
18.37
21.16
22.80
23.60
23.78
23.32
22.02
19.74
16.50
12.57
8.26
3.86
-0.48
-4.70
-8.72
-12.38
-15.51
-17.94
-19.56
-20.36
-20.37
-19.66
-18.36
-16.74
-15.14
-13.96
-13.52
-13.93
-15.13
-16.89
-18.99
-21.20
-23.39
-25.49
-27.48
-29.42
-31.33
-33.13
-34.58
-35.26
-34.64
-32.27
-28.02
-22.15
-15.33
-8.40
-2.10
3.01
6.71
8.94
9.74
9.23
7.57
5.05
2.18
-0.45
-2.29
-2.92
-2.29
-0.65
1.49
3.60
5.25
6.24
6.62
6.49
5.93
4.90
3.24
0.83
-2.31
-5.92
-9.63
-13.04
-15.95
-18.33
-20.34
-22.16
-23.91
-25.61
-27.27
-28.95
-30.74
-32.70
-34.72
-36.47
-37.39
-36.87
-34.51
-30.30
-24.68
-18.40
-12.29
-6.96
-2.69
0.57
3.01
4.80
5.98
6.56
6.66
6.57
6.68
7.38
8.79
10.79
12.98
15.01
16.70
18.12
19.47
20.91
22.46
23.89
24.87
25.06
24.26
22.49
19.97
17.07
14.19
11.60
9.39
7.42
5.44
3.17
0.48
-2.61
-5.86
-8.85
-11.01
-11.69
-10.37
-6.80
-1.27
5.42
12.18
18.00
22.33
25.28
27.37
29.17
30.95
32.50
33.41
33.31
32.22
30.50
28.72
27.29
26.34
25.77
25.35
24.89
24.17
22.90
20.76
17.45
13.00
7.81
2.59
-1.95
-5.41
-7.70
-9.04
-9.67
-9.69
-9.12
-8.06
-6.85
-6.03
-6.16
-7.49
-9.80
-12.45
-14.64
-15.63
-14.95
-12.51
-8.58
-3.66
1.55
6.43
10.48
13.44
15.29
16.11
16.05
15.22
13.74
11.73
9.43
7.07
4.92
3.12
1.74
0.67
-0.20
-1.08
-2.16
-3.57
-5.43
-7.74
-10.45
-13.47
-16.71
-20.06
-23.39
-26.53
-29.31
-31.57
-33.27
-34.53
-35.55
-36.59
-37.72
-38.81
-39.43
-39.00
-36.94
-32.95
-27.09
-19.83
-11.90
-4.02
3.27
9.75
15.43
20.47
25.13
29.62
34.15
38.89
43.92
49.19
54.51
59.52
63.78
66.88
68.56
68.85
68.03
66.58
64.95
63.35
61.66
59.54
56.59
52.64
47.75
42.24
36.43
30.54
24.74
19.18
14.02
9.42
5.47
2.08
-0.88
-3.49
-5.75
-7.61
-9.11
-10.58
-12.50
-15.37
-19.49
-24.81
-31.01
-37.74
-44.82
-52.21
-59.96
-67.97
-75.98
-83.58
-90.32
-95.68
-99.01
-99.47
-96.08
-88.15
-75.68
-59.69
-42.13
-25.38
-11.46
-1.44
4.63
7.50
8.14
7.29
5.25
2.17
-1.85
-6.56
-11.54
-16.39
-20.85
-24.73
-27.92
-30.26
-31.54
-31.57
-30.23
-27.62
-23.99
-19.76
-15.41
-11.35
-7.92
-5.29
-3.45
-2.23
-1.41
-0.72
-0.02
0.65
1.16
1.34
1.12
0.51
-0.37
-1.45
-2.78
-4.50
-6.79
-9.72
-13.22
-17.10
-21.13
-25.22
-29.46
-34.05
-39.22
-45.15
-51.77
-58.67
-65.02
-69.56
-70.94
-68.02
-60.32
-48.30
-33.21
-16.70
-0.38
14.69
28.13
39.97
50.37
59.27
66.40
71.16
72.84
70.69
64.12
53.12
38.58
22.49
7.69
-2.88
-7.19
-4.89
2.55
12.42
21.87
28.82
32.50
33.19
31.60
28.29
23.43
16.99
9.19
0.73
-7.25
-13.44
-16.84
-17.03
-14.16
-8.80
-1.66
6.54
15.11
23.34
30.48
35.82
38.89
39.57
38.12
35.11
31.17
26.85
22.54
18.38
14.38
10.50
6.68
2.94
-0.75
-4.40
-8.12
-11.96
-15.97
-20.16
-24.50
-28.97
-33.62
-38.44
-43.29
-47.89
-51.81
-54.76
-56.73
-58.09
-59.44
-61.16
-63.18
-64.87
-65.30
-63.75
-60.10
-54.94
-49.33
-44.38
-40.77
-38.54
-37.08
-35.34
-32.14
-26.60
-18.39
-7.93
3.77
15.44
25.98
34.77
41.73
47.08
51.07
53.82
55.32
55.64
55.08
54.14
53.28
52.76
52.42
51.89
50.70
48.54
45.44
41.67
37.64
33.75
30.21
26.93
23.62
19.87
15.32
9.81
3.50
-3.20
-9.71
-15.37
-19.58
-21.96
-22.33
-20.93
-18.21
-14.76
-11.12
-7.60
-4.30
-1.11
2.11
5.34
8.37
10.89
12.65
13.57
13.86
13.90
14.15
14.94
16.40
18.48
20.98
23.71
26.54
29.40
32.21
34.85
37.15
38.89
39.92
40.24
39.95
39.25
38.37
37.50
36.71
35.99
35.25
34.37
33.25
31.79
29.93
27.72
25.29
22.83
20.52
18.44
16.50
14.49
12.17
9.40
6.26
2.99
-0.11
-2.84
-5.21
-7.52
-10.18
-13.60
-17.99
-23.25
-28.99
-34.56
-39.17
-42.05
-42.57
-40.48
-35.93
-29.59
-22.40
-15.35
-9.24
-4.45
-0.93
1.76
4.15
6.66
9.43
12.32
14.98
17.12
18.62
19.62
20.42
21.22
22.09
22.89
23.41
23.66
23.81
24.13
24.68
25.21
25.09
23.69
20.67
16.22
10.99
5.83
1.48
-1.70
-3.68
-4.71
-4.96
-4.47
-3.11
-0.76
2.44
6.06
9.38
11.65
12.32
11.30
8.97
6.04
3.24
1.10
-0.18
-0.69
-0.65
-0.20
0.61
1.90
3.74
6.08
8.70
11.25
13.39
14.87
15.68
15.91
15.73
15.22
14.42
13.35
12.11
10.88
9.94
9.58
9.92
10.88
12.19
13.43
14.24
14.29
13.51
12.01
10.05
7.89
5.69
3.41
0.85
-2.23
-6.07
-10.76
-16.18
-22.01
-27.80
-33.00
-37.16
-40.02
-41.62
-42.30
-42.60
-43.03
-43.86
-44.91
-45.65
-45.29
-43.15
-38.89
-32.69
-25.16
-17.22
-9.76
-3.40
1.59
5.25
7.81
9.56
10.68
11.31
11.50
11.36
11.02
10.72
10.62
10.85
11.38
12.06
12.72
13.22
13.57
13.92
14.42
15.10
15.86
16.44
16.51
15.85
14.39
12.22
9.53
6.53
3.43
0.50
-1.98
-3.75
-4.79
-5.47
-6.50
-8.72
-12.72
-18.46
-25.34
-32.33
-38.40
-42.75
-44.94
-44.72
-41.97
-36.69
-29.18
-20.21
-10.89
-2.42
4.35
9.17
12.32
14.41
15.88
16.95
17.48
17.29
16.34
14.84
13.18
11.75
10.83
10.50
10.71
11.31
12.19
13.27
14.42
15.52
16.35
16.71
16.39
15.27
13.38
10.89
8.09
5.31
2.81
0.67
-1.19
-2.98
-4.93
-7.16
-9.64
-12.19
-14.62
-16.72
-18.48
-20.01
-21.49
-23.08
-24.87
-26.77
-28.51
-29.66
-29.71
-28.18
-24.84
-19.75
-13.36
-6.40
0.29
6.08
10.71
14.33
17.35
20.12
22.75
25.00
26.39
26.59
25.64
24.06
22.57
21.76
21.67
21.78
21.29
19.59
16.61
12.85
9.09
5.97
3.71
2.08
0.67
-0.74
-2.15
-3.34
-4.13
-4.59
-5.01
-5.80
-7.25
-9.36
-11.91
-14.55
-17.00
-19.09
-20.79
-22.17
-23.39
-24.58
-25.88
-27.26
-28.49
-29.07
-28.38
-25.94
-21.64
-15.87
-9.45
-3.27
1.98
6.02
8.92
10.93
12.23
12.90
12.94
12.40
11.44
10.29
9.19
8.34
7.85
7.73
7.90
8.25
8.61
8.84
8.89
8.79
8.60
8.38
8.11
7.67
6.94
5.85
4.48
2.95
1.46
0.07
-1.26
-2.68
-4.30
-6.12
-8.06
-9.99
-11.81
-13.57
-15.31
-17.00
-18.39
-19.07
-18.55
-16.55
-13.08
-8.52
-3.44
1.55
6.01
9.69
12.53
14.57
15.85
16.40
16.28
15.58
14.50
13.34
12.43
11.99
12.10
12.64
13.39
14.14
14.71
15.06
15.22
15.24
15.16
14.97
14.63
14.06
13.16
11.79
9.88
7.38
4.40
1.11
-2.31
-5.69
-9.01
-12.25
-15.47
-18.59
-21.43
-23.63
-24.71
-24.12
-21.47
-16.62
-9.78
-1.52
7.43
16.27
24.37
31.32
36.97
41.42
44.89
47.64
49.89
51.70
53.03
53.72
53.69
52.93
51.52
49.53
46.96
43.74
39.74
34.92
29.34
23.23
16.80
10.19
3.43
-3.60
-11.04
-18.89
-26.96
-34.90
-42.27
-48.68
-53.91
-57.98
-61.11
-63.67
-66.08
-68.72
-71.79
-75.23
-78.59
-81.14
-81.99
-80.49
-76.43
-70.11
-62.28
-53.84
-45.49
-37.63
-30.40
-23.79
-17.90
-12.93
-9.13
-6.68
-5.59
-5.67
-6.58
-8.01
-9.68
-11.38
-12.96
-14.24
-15.08
-15.36
-15.03
-14.19
-13.06
-11.89
-10.92
-10.25
-9.79
-9.35
-8.67
-7.55
-5.94
-3.91
-1.66
0.57
2.52
4.06
5.01
5.30
4.91
3.99
2.81
1.83
1.61
2.67
5.35
9.63
15.16
21.29
27.25
32.35
36.18
38.72
40.25
41.31
42.49
44.30
46.94
50.40
54.41
58.62
62.73
66.68
70.73
75.32
80.98
87.97
95.94
103.83
109.84
111.81
107.82
96.88
79.37
57.20
33.27
10.78
-7.69
-20.72
-28.26
-31.35
-31.51
-30.20
-28.38
-26.40
-24.23
-21.72
-18.88
-15.88
-13.00
-10.36
-7.83
-5.12
-2.12
0.93
3.30
4.08
2.52
-1.56
-7.75
-15.33
-23.59
-32.20
-41.12
-50.34
-59.60
-68.18
-75.11
-79.45
-80.66
-78.71
-74.09
-67.49
-59.61
-51.00
-41.97
-32.61
-22.91
-12.85
-2.51
7.79
17.62
26.39
33.63
39.09
42.90
45.49
47.49
49.63
52.46
56.31
61.09
66.18
70.52
72.79
71.84
67.07
58.63
47.44
34.82
22.11
10.31
-0.01
-8.70
-15.77
-21.35
-25.53
-28.55
-30.72
-32.55
-34.58
-37.28
-40.94
-45.50
-50.55
-55.39
-59.23
-61.43
-61.71
-60.29
-57.71
-54.70
-51.84
-49.47
-47.67
-46.38
-45.53
-45.03
-44.70
-44.14
-42.67
-39.40
-33.46
-24.42
-12.51
1.15
14.87
26.80
35.51
40.39
41.69
40.13
36.54
31.61
25.89
20.05
15.09
12.20
12.47
16.39
23.68
33.38
44.19
54.79
64.09
71.25
75.59
76.54
73.70
66.87
56.17
42.08
25.36
6.94
-12.18
-31.16
-49.33
-66.33
-81.90
-95.67
-107.02
-115.08
-118.94
-118.12
-112.72
-103.39
-91.06
-76.68
-61.03
-44.89
-29.14
-14.87
-3.26
4.73
8.65
8.57
5.04
-1.16
-9.09
-17.72
-25.90
-32.51
-36.62
-37.72
-35.93
-31.93
-26.79
-21.80
-18.17
-16.86
-18.40
-22.75
-29.28
-36.85
-44.02
-49.39
-51.86
-50.81
-46.23
-38.58
-28.64
-17.32
-5.57
5.74
15.84
24.10
30.21
34.25
36.86
39.06
42.05
46.73
53.41
61.69
70.63
78.97
85.39
88.72
88.00
82.74
73.08
60.00
45.21
30.82
18.79
10.42
6.12
5.42
7.37
10.86
14.89
18.64
21.53
23.20
23.51
22.53
20.52
17.85
14.87
11.89
9.05
6.36
3.61
0.55
-3.06
-7.33
-12.19
-17.44
-22.83
-28.17
-33.40
-38.43
-43.04
-46.75
-48.88
-48.83
-46.33
-41.64
-35.53
-29.06
-23.14
-18.36
-14.81
-12.30
-10.58
-9.59
-9.41
-10.31
-12.65
-16.73
-22.84
-30.94
-40.45
-50.16
-58.38
-63.46
-64.33
-60.78
-53.44
-43.35
-31.49
-18.52
-4.75
9.51
23.88
37.77
50.56
61.76
71.08
78.42
83.83
87.48
89.68
90.87
91.54
92.03
92.39
92.30
91.25
88.75
84.62
79.11
72.90
66.90
61.97
58.70
57.24
57.26
58.09
58.95
59.15
58.32
56.42
53.58
49.89
45.22
39.23
31.53
22.10
11.40
0.41
-9.76
-18.24
-24.80
-29.77
-33.80
-37.48
-41.02
-44.31
-47.13
-49.45
-51.53
-53.61
-55.70
-57.34
-57.75
-56.30
-52.83
-47.92
-42.63
-38.08
-35.08
-33.95
-34.66
-37.15
-41.51
-47.94
-56.44
-66.50
-76.86
-85.63
-90.70
-90.36
-83.84
-71.61
-55.26
-37.01
-19.02
-2.83
10.76
21.58
29.70
35.16
37.80
37.51
34.41
29.00
22.16
14.89
8.01
2.05
-2.82
-6.62
-9.35
-10.91
-11.21
-10.20
-8.13
-5.52
-3.07
-1.44
-1.12
-2.26
-4.76
-8.30
-12.49
-16.91
-21.17
-24.89
-27.84
-29.89
-31.04
-31.40
-31.07
-30.15
-28.71
-26.79
-24.42
-21.51
-17.96
-13.54
-8.07
-1.53
5.89
13.76
21.46
28.35
33.93
37.82
39.82
39.71
37.31
32.55
25.58
16.94
7.45
-1.89
-10.24
-17.08
-22.40
-26.55
-30.00
-33.24
-36.56
-40.08
-43.65
-46.97
-49.61
-51.09
-51.19
-49.93
-47.66
-44.81
-41.77
-38.70
-35.67
-32.72
-30.02
-27.93
-26.79
-26.80
-27.89
-29.77
-32.05
-34.43
-36.69
-38.53
-39.52
-38.99
-36.17
-30.49
-21.90
-11.03
0.92
12.62
23.10
32.05
39.84
47.12
54.29
61.13
66.87
70.58
71.69
70.41
67.69
64.87
63.10
62.98
64.39
66.69
69.04
70.68
71.17
70.37
68.40
65.54
62.06
58.09
53.54
48.04
41.19
32.71
22.82
12.20
1.92
-6.92
-13.62
-18.01
-20.55
-22.06
-23.43
-25.29
-27.92
-31.13
-34.38
-36.88
-37.77
-36.31
-32.03
-24.84
-15.09
-3.49
9.07
21.73
33.83
45.01
55.02
63.66
70.60
75.40
77.63
77.13
74.08
68.97
62.55
55.47
48.28
41.36
34.92
29.10
23.94
19.37
15.21
11.34
7.66
4.22
1.14
-1.55
-3.88
-5.99
-8.05
-10.20
-12.52
-15.02
-17.73
-20.67
-23.81
-27.06
-30.26
-33.23
-35.83
-37.98
-39.57
-40.46
-40.38
-39.01
-36.11
-31.69
-26.03
-19.63
-13.05
-6.77
-1.18
3.51
7.19
9.83
11.56
12.52
12.94
12.98
12.71
12.19
11.46
10.66
9.97
9.54
9.43
9.51
9.61
9.57
9.37
9.10
8.89
8.74
8.52
7.98
6.94
5.35
3.40
1.43
-0.28
-1.60
-2.61
-3.57
-4.71
-6.20
-8.07
-10.23
-12.53
-14.75
-16.58
-17.62
-17.46
-15.78
-12.51
-7.87
-2.31
3.57
9.24
14.30
18.46
21.53
23.40
24.06
23.64
22.46
20.91
19.39
18.22
17.53
17.26
17.32
17.51
17.73
17.92
18.09
18.28
18.53
18.86
19.23
19.51
19.53
19.09
18.05
16.43
14.42
12.30
10.39
8.85
7.66
6.63
5.50
4.08
2.35
0.47
-1.24
-2.44
-2.80
-2.10
-0.25
2.70
6.49
10.69
14.77
18.21
20.60
21.67
21.32
19.60
16.71
12.98
8.90
5.01
1.81
-0.36
-1.42
-1.54
-1.07
-0.38
0.27
0.76
1.10
1.30
1.38
1.28
0.92
0.24
-0.72
-1.85
-3.00
-4.02
-4.88
-5.68
-6.61
-7.99
-9.95
-12.46
-15.26
-17.90
-19.90
-20.89
-20.66
-19.12
-16.21
-11.91
-6.32
0.15
6.71
12.31
15.92
16.89
15.18
11.36
6.34
1.13
-3.47
-6.93
-9.02
-9.68
-9.06
-7.52
-5.59
-3.87
-2.88
-2.85
-3.69
-5.09
-6.60
-7.90
-8.87
-9.60
-10.24
-10.94
-11.72
-12.53
-13.30
-13.99
-14.64
-15.38
-16.35
-17.69
-19.50
-21.65
-23.80
-25.44
-25.90
-24.62
-21.36
-16.26
-9.82
-2.76
4.25
10.66
16.14
20.51
23.66
25.56
26.29
26.02
24.98
23.45
21.58
19.47
17.25
15.10
13.20
11.61
10.13
8.28
5.56
1.72
-3.03
-8.04
-12.57
-16.03
-18.25
-19.40
-19.80
-19.70
-19.25
-18.60
-18.00
-17.84
-18.51
-20.19
-22.75
-25.79
-28.74
-31.11
-32.48
-32.57
-31.17
-28.18
-23.72
-18.07
-11.74
-5.33
0.57
5.54
9.32
11.78
12.91
12.73
11.39
9.19
6.55
3.96
1.85
0.41
-0.37
-0.70
-0.84
-0.99
-1.23
-1.51
-1.67
-1.63
-1.37
-1.03
-0.90
-1.29
-2.39
-4.20
-6.47
-8.72
-10.46
-11.48
-11.91
-12.22
-13.02
-14.76
-17.50
-20.86
-24.11
-26.40
-27.06
-25.72
-22.43
-17.59
-11.77
-5.64
0.18
5.23
9.22
12.01
13.59
14.08
13.66
12.59
11.19
9.78
8.59
7.74
7.20
6.85
6.53
6.19
5.82
5.54
5.38
5.34
5.35
5.27
5.07
4.77
4.43
4.09
3.64
2.90
1.68
-0.10
-2.33
-4.80
-7.34
-9.88
-12.47
-15.13
-17.70
-19.78
-20.75
-20.05
-17.37
-12.83
-6.98
-0.62
5.43
10.50
14.27
16.71
18.06
18.66
18.88
19.00
19.20
19.54
19.97
20.34
20.42
19.97
18.78
16.78
13.99
10.57
6.71
2.63
-1.49
-5.44
-9.07
-12.26
-14.94
-17.13
-18.87
-20.18
-21.03
-21.33
-21.08
-20.43
-19.74
-19.53
-20.25
-22.11
-24.83
-27.72
-29.80
-30.13
-28.16
-23.90
-17.92
-11.12
-4.38
1.66
6.68
10.62
13.50
15.28
15.92
15.40
13.90
11.76
9.49
7.54
6.18
5.41
5.02
4.74
4.40
4.04
3.79
3.80
4.11
4.57
4.93
4.97
4.55
3.65
2.28
0.44
-1.83
-4.45
-7.24
-9.94
-12.33
-14.32
-16.04
-17.77
-19.80
-22.27
-25.08
-27.83
-29.91
-30.69
-29.68
-26.67
-21.80
-15.54
-8.60
-1.75
4.39
9.45
13.33
16.09
17.87
18.78
18.86
18.21
17.01
15.63
14.41
13.62
13.30
13.30
13.38
13.41
13.42
13.53
13.81
14.23
14.61
14.77
14.63
14.21
13.62
12.88
11.97
10.80
9.33
7.62
5.80
3.97
2.14
0.19
-2.08
-4.83
-8.14
-11.92
-15.95
-19.84
-23.02
-24.86
-24.80
-22.52
-18.15
-12.28
-5.79
0.45
5.84
10.17
13.55
16.21
18.27
19.68
20.31
20.01
18.79
16.86
14.58
12.33
10.41
8.95
7.92
7.15
6.47
5.74
4.87
3.77
2.34
0.49
-1.87
-4.69
-7.81
-10.97
-13.90
-16.40
-18.35
-19.70
-20.45
-20.73
-20.78
-20.99
-21.77
-23.41
-25.87
-28.75
-31.31
-32.64
-31.95
-28.68
-22.76
-14.65
-5.26
4.31
13.02
20.16
25.50
29.14
31.38
32.50
32.67
31.92
30.37
28.25
25.94
23.86
22.35
21.53
21.32
21.44
21.60
21.58
21.30
20.81
20.17
19.34
18.14
16.27
13.49
9.81
5.49
1.06
-2.99
-6.46
-9.44
-12.35
-15.64
-19.60
-24.16
-28.96
-33.45
-37.03
-39.14
-39.24
-36.88
-31.85
-24.27
-14.82
-4.61
5.04
12.95
18.38
21.24
21.96
21.24
19.74
17.91
15.99
14.12
12.48
